1.033
1.04
1.046
1.036
1.034
1.035
1.038
1.039
1.041
1.037
1.047
1.049
1.049
1.052
1.054
1.054
1.055
1.052
1.053
1.051
1.051
1.049
1.049
1.043
1.043
1.039
1.035
1.031
1.031
1.03
1.024
1.0230000000000001
1.0190000000000001
1.0170000000000001
1.01
1.0050000000000001
0.996
0.99
0.986
0.981
0.975
0.973
0.971
0.966
0.962
0.9580000000000001
0.9530000000000001
0.9530000000000001
0.9470000000000001
0.9440000000000001
0.9460000000000001
0.9490000000000001
0.9440000000000001
0.9450000000000001
0.9410000000000001
0.9430000000000001
0.9390000000000001
0.9430000000000001
0.9430000000000001
0.9430000000000001
0.9410000000000001
0.9450000000000001
0.9430000000000001
0.9440000000000001
0.9470000000000001
0.9500000000000001
0.9520000000000001
0.9530000000000001
0.9430000000000001
0.9530000000000001
0.9550000000000001
0.9550000000000001
0.96
0.968
0.973
0.981
0.985
0.985
0.989
0.991
0.998
1.0030000000000001
1.0070000000000001
1.004
1.0110000000000001
1.0190000000000001
1.024
1.0230000000000001
1.03
1.031
1.029
1.03
1.03
1.025
1.028
1.029
1.026
1.031
1.029
1.031
1.037
1.041
1.037
1.043
1.047
1.043
1.047
1.045
1.045
1.047
1.046
1.045
1.042
1.039
1.035
1.033
1.031
1.031
1.027
1.025
1.0210000000000001
1.016
1.0150000000000001
1.0110000000000001
1.0130000000000001
1.0070000000000001
1.002
1.0010000000000001
0.994
0.985
0.984
0.977
0.981
0.971
0.974
0.967
0.971
0.968
0.962
0.968
0.968
0.966
0.963
0.964
0.9590000000000001
0.9560000000000001
0.9520000000000001
0.9490000000000001
0.9470000000000001
0.9450000000000001
0.9450000000000001
0.9430000000000001
0.9410000000000001
0.9400000000000001
0.9380000000000001
0.936
0.936
0.935
0.935
0.935
0.933
0.931
0.932
0.933
0.934
0.9380000000000001
0.9430000000000001
0.9420000000000001
0.9430000000000001
0.9450000000000001
0.9470000000000001
0.9480000000000001
0.9500000000000001
0.9510000000000001
0.9550000000000001
0.9580000000000001
0.961
0.962
0.963
0.963
0.961
0.96
0.963
0.961
0.96
0.961
0.964
0.963
0.963
0.962
0.963
0.963
0.963
0.963
0.967
0.973
0.978
0.98
0.983
0.988
0.989
0.993
0.995
0.998
0.999
1.0010000000000001
1.004
1.0010000000000001
1.0070000000000001
1.0090000000000001
1.01
1.012
1.014
1.016
1.0170000000000001
1.02
1.0210000000000001
1.024
1.025
1.025
1.029
1.027
1.025
1.024
1.024
1.0230000000000001
1.024
1.025
1.025
1.026
1.03
1.03
1.033
1.034
1.034
1.035
1.037
1.037
1.035
1.036
1.035
1.036
1.034
1.034
1.031
1.031
1.027
1.027
1.0230000000000001
1.0190000000000001
1.016
1.01
1.0090000000000001
1.0050000000000001
0.999
0.996
0.995
0.988
0.987
0.987
0.982
0.975
0.975
0.97
0.969
0.963
0.965
0.9560000000000001
0.9460000000000001
0.9480000000000001
0.9450000000000001
0.9390000000000001
0.936
0.933
0.933
0.935
0.932
0.928
0.919
0.927
0.923
0.923
0.921
0.922
0.927
0.9390000000000001
0.935
0.936
0.93
0.929
0.931
0.928
0.929
0.931
0.93
0.934
0.933
0.934
0.9390000000000001
0.9400000000000001
0.9430000000000001
0.9470000000000001
0.9470000000000001
0.9510000000000001
0.9510000000000001
0.9570000000000001
0.9560000000000001
0.9560000000000001
0.9550000000000001
0.9570000000000001
0.9590000000000001
0.96
0.9590000000000001
0.96
0.961
0.96
0.9590000000000001
0.9590000000000001
0.9580000000000001
0.963
0.961
0.961
0.9590000000000001
0.961
0.966
0.967
0.967
0.969
0.972
0.975
0.976
0.977
0.979
0.979
0.982
0.983
0.986
0.987
0.991
0.992
0.994
0.998
1.0010000000000001
1.0030000000000001
1.0030000000000001
1.006
1.0070000000000001
1.01
1.0110000000000001
1.0130000000000001
1.0150000000000001
1.0150000000000001
1.0150000000000001
1.014
1.014
1.0150000000000001
1.0130000000000001
1.0150000000000001
1.0130000000000001
1.014
1.018
1.0190000000000001
1.0190000000000001
1.0230000000000001
1.0230000000000001
1.025
1.025
1.026
1.026
1.026
1.026
1.027
1.025
1.024
1.024
1.0210000000000001
1.018
1.016
1.0170000000000001
1.0150000000000001
1.0130000000000001
1.0150000000000001
1.012
1.0130000000000001
1.01
1.0070000000000001
1.0070000000000001
1.008
1.002
0.998
0.996
0.997
0.993
0.991
0.989
0.989
0.986
0.986
0.983
0.98
0.98
0.975
0.976
0.971
0.968
0.966
0.965
0.961
0.9570000000000001
0.9560000000000001
0.9520000000000001
0.9490000000000001
0.9460000000000001
0.9410000000000001
0.9410000000000001
0.935
0.933
0.931
0.927
0.923
0.924
0.924
0.919
0.92
0.919
0.919
0.915
0.913
0.911
0.91
0.914
0.915
0.911
0.911
0.914
0.907
0.91
0.917
0.925
0.916
0.921
0.9420000000000001
0.9400000000000001
0.9390000000000001
0.935
0.935
0.933
0.934
0.929
0.933
0.931
0.934
0.9390000000000001
0.934
0.9430000000000001
0.9420000000000001
0.9410000000000001
0.9430000000000001
0.9470000000000001
0.9490000000000001
0.9530000000000001
0.9590000000000001
0.962
0.963
0.972
0.976
0.978
0.981
0.984
0.986
0.983
0.988
0.987
0.989
0.991
0.993
0.992
0.99
0.995
0.991
0.997
0.997
0.999
1.0
1.002
1.0030000000000001
1.0030000000000001
1.0050000000000001
1.006
1.006
1.0050000000000001
1.0070000000000001
1.008
1.0110000000000001
1.0110000000000001
1.0130000000000001
1.0170000000000001
1.018
1.0210000000000001
1.0230000000000001
1.022
1.022
1.022
1.024
1.024
1.026
1.027
1.029
1.032
1.036
1.039
1.042
1.044
1.047
1.048
1.049
1.048
1.05
1.049
1.046
1.049
1.047
1.046
1.045
1.043
1.04
1.04
1.037
1.034
1.033
1.03
1.029
1.025
1.022
1.0190000000000001
1.0170000000000001
1.0150000000000001
1.014
1.0110000000000001
1.01
1.008
1.006
1.0030000000000001
1.002
0.997
0.997
0.995
0.991
0.991
0.988
0.983
0.984
0.977
0.977
0.977
0.975
0.975
0.975
0.974
0.972
0.97
0.968
0.967
0.965
0.964
0.962
0.961
0.9580000000000001
0.9570000000000001
0.9550000000000001
0.9510000000000001
0.9510000000000001
0.9500000000000001
0.9490000000000001
0.9470000000000001
0.9460000000000001
0.9420000000000001
0.9430000000000001
0.9390000000000001
0.9420000000000001
0.9410000000000001
0.9410000000000001
0.9400000000000001
0.9380000000000001
0.9390000000000001
0.935
0.934
0.935
0.935
0.936
0.9380000000000001
0.9380000000000001
0.9390000000000001
0.9390000000000001
0.9430000000000001
0.9440000000000001
0.9490000000000001
0.9490000000000001
0.9510000000000001
0.9520000000000001
0.9530000000000001
0.9520000000000001
0.9510000000000001
0.9540000000000001
0.9550000000000001
0.9570000000000001
0.9580000000000001
0.9590000000000001
0.9590000000000001
0.9590000000000001
0.9590000000000001
0.9590000000000001
0.9580000000000001
0.9590000000000001
0.962
0.9590000000000001
0.96
0.961
0.961
0.964
0.967
0.969
0.973
0.973
0.974
0.978
0.977
0.977
0.981
0.982
0.985
0.986
0.986
0.989
0.99
0.99
0.989
0.993
0.995
0.997
0.999
1.0010000000000001
1.0030000000000001
1.004
1.0070000000000001
1.0070000000000001
1.014
1.0170000000000001
1.0190000000000001
1.0210000000000001
1.024
1.025
1.029
1.03
1.035
1.037
1.041
1.041
1.039
1.039
1.035
1.037
1.036
1.033
1.031
1.031
1.033
1.032
1.035
1.039
1.043
1.043
1.043
1.038
1.042
1.045
1.045
1.045
1.047
1.047
1.044
1.048
1.045
1.039
1.044
1.045
1.043
1.042
1.048
1.034
1.035
1.033
1.025
1.028
1.031
1.016
1.0130000000000001
0.995
0.989
0.987
0.982
0.975
0.97
0.966
0.962
0.9540000000000001
0.9500000000000001
0.9410000000000001
0.9430000000000001
0.9450000000000001
0.9410000000000001
0.936
0.9380000000000001
0.936
0.935
0.934
0.9380000000000001
0.9380000000000001
0.9400000000000001
0.9410000000000001
0.9390000000000001
0.9390000000000001
0.9380000000000001
0.936
0.936
0.937
0.937
0.936
0.935
0.935
0.933
0.932
0.933
0.933
0.935
0.935
0.937
0.936
0.9380000000000001
0.9410000000000001
0.9390000000000001
0.9410000000000001
0.9430000000000001
0.9430000000000001
0.9470000000000001
0.9490000000000001
0.9500000000000001
0.9530000000000001
0.9540000000000001
0.9560000000000001
0.9580000000000001
0.96
0.963
0.965
0.967
0.969
0.972
0.973
0.973
0.977
0.976
0.979
0.98
0.979
0.979
0.981
0.983
0.983
0.984
0.985
0.986
0.99
0.989
0.992
0.993
0.993
0.995
0.993
0.993
0.996
0.997
0.998
0.999
1.0010000000000001
1.0
1.0030000000000001
1.0030000000000001
1.0030000000000001
1.0050000000000001
1.0050000000000001
1.0090000000000001
1.008
1.008
1.012
1.014
1.014
1.0170000000000001
1.0230000000000001
1.0230000000000001
1.027
1.032
1.039
1.043
1.045
1.049
1.048
1.048
1.048
1.045
1.044
1.044
1.043
1.043
1.044
1.044
1.045
1.048
1.052
1.055
1.055
1.056
1.059
1.059
1.059
1.059
1.059
1.059
1.057
1.056
1.054
1.053
1.052
1.051
1.05
1.048
1.049
1.047
1.044
1.046
1.042
1.041
1.038
1.036
1.035
1.035
1.033
1.031
1.029
1.029
1.027
1.026
1.024
1.0230000000000001
1.02
1.0170000000000001
1.0170000000000001
1.0130000000000001
1.012
1.0090000000000001
1.004
1.002
0.998
0.997
0.995
0.991
0.99
0.986
0.983
0.982
0.979
0.975
0.972
0.97
0.967
0.965
0.962
0.9590000000000001
0.9590000000000001
0.9570000000000001
0.9550000000000001
0.9540000000000001
0.9520000000000001
0.9530000000000001
0.9530000000000001
0.9500000000000001
0.9530000000000001
0.9490000000000001
0.9490000000000001
0.9480000000000001
0.9460000000000001
0.9450000000000001
0.9450000000000001
0.9480000000000001
0.9420000000000001
0.9500000000000001
0.9500000000000001
0.9510000000000001
0.9540000000000001
0.9510000000000001
0.9520000000000001
0.9540000000000001
0.9590000000000001
0.96
0.961
0.9530000000000001
0.961
0.96
0.969
0.963
0.967
0.967
0.968
0.973
0.977
0.975
0.977
0.979
0.979
0.98
0.985
0.982
0.983
0.985
0.991
0.987
0.991
0.989
0.987
0.995
0.994
0.996
0.999
1.002
1.0010000000000001
1.004
1.0050000000000001
1.006
1.008
1.0030000000000001
1.012
1.012
1.0170000000000001
1.0150000000000001
1.014
1.0170000000000001
1.0190000000000001
1.048
1.055
1.047
1.05
1.048
1.053
1.045
1.043
1.046
1.052
1.049
1.052
1.051
1.06
1.058
1.062
1.066
1.069
1.069
1.073
1.073
1.074
1.072
1.074
1.071
1.071
1.067
1.063
1.061
1.058
1.057
1.053
1.05
1.046
1.043
1.038
1.035
1.031
1.029
1.025
1.024
1.0210000000000001
1.0170000000000001
1.012
1.01
1.0070000000000001
1.004
0.999
0.999
0.996
0.994
0.992
0.99
0.986
0.986
0.983
0.98
0.978
0.975
0.976
0.975
0.974
0.973
0.97
0.967
0.965
0.962
0.961
0.961
0.96
0.9570000000000001
0.9560000000000001
0.9570000000000001
0.9570000000000001
0.9580000000000001
0.9580000000000001
0.961
0.965
0.965
0.967
0.969
0.968
0.971
0.971
0.97
0.973
0.973
0.974
0.977
0.976
0.977
0.979
0.979
0.983
0.983
0.984
0.986
0.987
0.987
0.989
0.991
0.995
0.997
0.997
1.0
1.002
1.0050000000000001
1.006
1.0070000000000001
1.008
1.01
1.01
1.0110000000000001
1.012
1.0130000000000001
1.016
1.018
1.0190000000000001
1.022
1.024
1.03
1.031
1.036
1.039
1.043
1.047
1.049
1.051
1.053
1.056
1.055
1.059
1.061
1.061
1.06
1.059
1.06
1.054
1.057
1.051
1.054
1.055
1.063
1.067
1.071
1.071
1.074
1.07
1.07
1.073
1.068
1.068
1.066
1.067
1.065
1.067
1.066
1.059
1.061
1.062
1.059
1.059
1.057
1.051
1.047
1.046
1.042
1.041
1.035
1.032
1.033
1.03
1.024
1.0210000000000001
1.016
1.0130000000000001
1.008
1.004
0.999
0.991
0.985
0.988
0.983
0.978
0.973
0.974
0.972
0.972
0.972
0.973
0.973
0.967
0.966
0.971
0.976
0.984
0.984
0.982
0.985
0.981
0.986
0.99
0.988
0.99
0.994
0.994
0.993
0.994
0.994
0.997
0.999
0.999
0.997
1.0
0.998
0.997
0.997
0.999
0.999
0.999
0.999
1.002
1.0070000000000001
1.0090000000000001
1.014
1.0150000000000001
1.0150000000000001
1.018
1.02
1.022
1.024
1.025
1.026
1.028
1.028
1.03
1.031
1.032
1.034
1.037
1.038
1.038
1.04
1.041
1.046
1.046
1.048
1.049
1.05
1.054
1.055
1.057
1.058
1.058
1.06
1.061
1.059
1.061
1.061
1.06
1.06
1.063
1.065
1.066
1.068
1.068
1.069
1.071
1.073
1.071
1.072
1.069
1.075
1.077
1.074
1.076
1.075
1.077
1.076
1.073
1.07
1.071
1.064
1.067
1.063
1.063
1.055
1.057
1.052
1.053
1.052
1.051
1.049
1.046
1.045
1.042
1.04
1.039
1.035
1.034
1.031
1.033
1.031
1.03
1.027
1.026
1.027
1.025
1.024
1.022
1.0190000000000001
1.0170000000000001
1.014
1.012
1.0070000000000001
1.0
0.999
0.996
0.996
0.992
0.99
0.986
0.987
0.983
0.981
0.979
0.978
0.976
0.978
0.978
0.977
0.981
0.981
0.982
0.985
0.986
0.994
0.994
0.997
0.998
1.002
1.0030000000000001
1.008
1.01
1.016
1.02
1.0210000000000001
1.0230000000000001
1.02
1.024
1.027
1.026
1.025
1.0230000000000001
1.0230000000000001
1.018
1.02
1.0190000000000001
1.0170000000000001
1.018
1.018
1.0190000000000001
1.0210000000000001
1.0210000000000001
1.026
1.0230000000000001
1.025
1.031
1.031
1.036
1.033
1.038
1.039
1.039
1.042
1.042
1.046
1.049
1.051
1.052
1.055
1.059
1.066
1.068
1.071
1.075
1.079
1.08
1.081
1.075
1.081
1.076
1.075
1.069
1.071
1.079
1.087
1.088
1.089
1.088
1.087
1.087
1.085
1.082
1.081
1.084
1.08
1.091
1.088
1.078
1.073
1.075
1.069
1.066
1.067
1.059
1.061
1.055
1.056
1.046
1.045
1.04
1.035
1.033
1.026
1.026
1.0190000000000001
1.0170000000000001
1.0170000000000001
1.014
1.01
1.0130000000000001
1.012
1.01
1.008
1.0050000000000001
1.0010000000000001
0.999
0.997
0.995
0.993
0.991
0.988
0.988
0.986
0.986
0.982
0.984
0.982
0.981
0.98
0.979
0.978
0.977
0.979
0.978
0.978
0.975
0.975
0.974
0.974
0.975
0.975
0.977
0.979
0.98
0.979
0.98
0.981
0.979
0.977
0.979
0.976
0.978
0.978
0.98
0.983
0.984
0.983
0.985
0.985
0.985
0.986
0.987
0.986
0.986
0.986
0.984
0.984
0.983
0.984
0.985
0.987
0.987
0.987
0.987
0.99
0.987
0.988
0.989
0.987
0.988
0.986
0.986
0.984
0.985
0.984
0.983
0.984
0.983
0.981
0.979
0.976
0.975
0.972
0.973
0.972
0.971
0.97
0.971
0.971
0.971
0.974
0.972
0.977
0.978
0.981
0.984
0.989
0.994
0.996
1.002
1.0050000000000001
1.0090000000000001
1.0110000000000001
1.0150000000000001
1.0150000000000001
1.016
1.018
1.018
1.0190000000000001
1.0210000000000001
1.024
1.027
1.031
1.034
1.042
1.044
1.05
1.052
1.059
1.062
1.065
1.066
1.071
1.073
1.073
1.075
1.077
1.077
1.077
1.078
1.078
1.082
1.082
1.077
1.079
1.075
1.075
1.078
1.073
1.077
1.073
1.07
1.071
1.069
1.066
1.065
1.063
1.062
1.059
1.057
1.057
1.057
1.054
1.054
1.052
1.047
1.041
1.038
1.033
1.028
1.024
1.016
1.0110000000000001
1.0090000000000001
1.0030000000000001
0.999
0.994
0.993
0.99
0.993
0.99
0.987
0.99
0.985
0.988
0.99
0.986
0.987
0.981
0.985
0.981
0.975
0.971
0.97
0.966
0.965
0.961
0.961
0.9550000000000001
0.9500000000000001
0.9510000000000001
0.9500000000000001
0.9510000000000001
0.9510000000000001
0.9480000000000001
0.9470000000000001
0.9450000000000001
0.9520000000000001
0.9510000000000001
0.9530000000000001
0.9530000000000001
0.9510000000000001
0.9490000000000001
0.9540000000000001
0.962
0.976
0.985
0.987
0.993
0.997
1.01
1.02
1.024
1.028
1.031
1.033
1.035
1.036
1.043
1.046
1.054
1.057
1.057
1.058
1.057
1.055
1.052
1.052
1.051
1.051
1.049
1.053
1.053
1.055
1.054
1.054
1.055
1.056
1.057
1.056
1.059
1.06
1.061
1.062
1.063
1.063
1.065
1.067
1.068
1.07
1.068
1.065
1.067
1.069
1.07
1.075
1.079
1.075
1.073
1.069
1.063
1.055
1.051
1.042
1.034
1.028
1.024
1.018
1.014
1.01
1.006
1.0030000000000001
1.0
0.995
0.992
0.991
0.989
0.99
0.988
0.99
0.989
0.989
0.985
0.981
0.974
0.971
0.967
0.96
0.9570000000000001
0.9520000000000001
0.9500000000000001
0.9470000000000001
0.9390000000000001
0.9380000000000001
0.9380000000000001
0.936
0.935
0.935
0.932
0.929
0.927
0.924
0.923
0.919
0.915
0.91
0.902
0.895
0.888
0.879
0.869
0.863
0.857
0.851
0.847
0.846
0.843
0.842
0.843
0.845
0.843
0.845
0.846
0.846
0.851
0.854
0.856
0.864
0.868
0.876
0.881
0.889
0.897
0.905
0.913
0.926
0.936
0.9480000000000001
0.9580000000000001
0.971
0.983
0.994
1.0070000000000001
1.0190000000000001
1.031
1.039
1.049
1.057
1.063
1.071
1.076
1.08
1.086
1.087
1.09
1.095
1.098
1.103
1.105
1.114
1.116
1.123
1.133
1.1300000000000001
1.1380000000000001
1.141
1.1420000000000001
1.147
1.149
1.149
1.1460000000000001
1.145
1.141
1.1340000000000001
1.1280000000000001
1.119
1.111
1.104
1.092
1.088
1.083
1.077
1.071
1.076
1.078
1.086
1.083
1.083
1.09
1.087
1.082
1.077
1.07
1.059
1.041
1.033
1.029
1.025
1.0190000000000001
1.0190000000000001
1.0170000000000001
1.0150000000000001
1.012
1.0190000000000001
1.0130000000000001
1.0190000000000001
1.0190000000000001
1.0170000000000001
1.018
1.02
1.0210000000000001
1.025
1.024
1.025
1.0210000000000001
1.0190000000000001
1.016
1.016
1.0110000000000001
1.0110000000000001
1.0070000000000001
1.006
1.004
0.999
0.997
0.995
0.991
0.989
0.987
0.986
0.983
0.983
0.981
0.981
0.981
0.98
0.984
0.983
0.983
0.986
0.986
0.987
0.99
0.993
0.995
0.995
0.999
1.0010000000000001
1.002
1.0050000000000001
1.0050000000000001
1.006
1.0090000000000001
1.0130000000000001
1.014
1.0170000000000001
1.0170000000000001
1.0170000000000001
1.02
1.0210000000000001
1.025
1.029
1.031
1.033
1.034
1.034
1.036
1.035
1.039
1.041
1.045
1.048
1.055
1.062
1.067
1.075
1.08
1.085
1.085
1.085
1.086
1.087
1.085
1.083
1.083
1.082
1.08
1.079
1.078
1.078
1.078
1.074
1.072
1.07
1.064
1.067
1.064
1.059
1.057
1.052
1.05
1.045
1.044
1.037
1.029
1.029
1.029
1.027
1.03
1.03
1.03
1.025
1.0230000000000001
1.02
1.0110000000000001
1.0090000000000001
1.0070000000000001
0.999
0.996
0.993
0.991
0.987
0.984
0.987
0.98
0.982
0.981
0.981
0.981
0.979
0.979
0.978
0.977
0.975
0.973
0.975
0.974
0.974
0.973
0.971
0.975
0.972
0.973
0.975
0.973
0.977
0.979
0.978
0.976
0.979
0.971
0.97
0.969
0.963
0.965
0.963
0.961
0.9590000000000001
0.9580000000000001
0.9580000000000001
0.9550000000000001
0.9550000000000001
0.9550000000000001
0.9550000000000001
0.9540000000000001
0.9590000000000001
0.9590000000000001
0.9570000000000001
0.9580000000000001
0.964
0.965
0.966
0.974
0.981
0.986
0.994
0.999
1.002
1.0030000000000001
1.012
1.012
1.027
1.031
1.034
1.047
1.04
1.043
1.048
1.051
1.054
1.061
1.062
1.065
1.065
1.066
1.065
1.065
1.066
1.07
1.07
1.076
1.077
1.075
1.073
1.07
1.068
1.064
1.061
1.057
1.055
1.053
1.047
1.044
1.041
1.037
1.032
1.029
1.027
1.0230000000000001
1.02
1.0130000000000001
1.0150000000000001
1.012
1.0150000000000001
1.0190000000000001
1.022
1.0230000000000001
1.0210000000000001
1.02
1.0150000000000001
1.012
1.0090000000000001
1.0070000000000001
1.004
1.0050000000000001
1.002
1.0010000000000001
0.998
0.993
0.989
0.986
0.983
0.983
0.982
0.978
0.974
0.97
0.971
0.966
0.961
0.9540000000000001
0.9450000000000001
0.93
0.913
0.896
0.88
0.867
0.855
0.845
0.836
0.8310000000000001
0.8270000000000001
0.8220000000000001
0.8170000000000001
0.8140000000000001
0.8140000000000001
0.811
0.8130000000000001
0.811
0.811
0.8130000000000001
0.812
0.8140000000000001
0.8190000000000001
0.8250000000000001
0.8300000000000001
0.838
0.848
0.858
0.868
0.875
0.888
0.9
0.913
0.925
0.937
0.9490000000000001
0.961
0.974
0.982
0.994
1.0010000000000001
1.0090000000000001
1.0170000000000001
1.025
1.033
1.04
1.047
1.054
1.059
1.067
1.073
1.079
1.087
1.09
1.095
1.099
1.103
1.105
1.11
1.111
1.113
1.115
1.119
1.119
1.124
1.122
1.119
1.118
1.113
1.114
1.111
1.107
1.106
1.105
1.105
1.109
1.112
1.115
1.121
1.122
1.125
1.127
1.1320000000000001
1.1380000000000001
1.1400000000000001
1.1460000000000001
1.151
1.155
1.158
1.162
1.162
1.163
1.162
1.157
1.153
1.147
1.1360000000000001
1.1300000000000001
1.118
1.109
1.098
1.086
1.078
1.069
1.067
1.055
1.052
1.047
1.043
1.038
1.0230000000000001
1.0190000000000001
1.01
1.0050000000000001
0.999
0.998
0.995
0.991
0.99
0.986
0.984
0.99
0.993
1.0
0.999
1.004
0.996
1.014
1.0110000000000001
1.012
1.018
1.0090000000000001
1.012
1.0090000000000001
1.014
1.01
1.0090000000000001
1.0110000000000001
1.01
1.008
1.0090000000000001
1.0070000000000001
1.008
1.0010000000000001
0.998
0.993
0.985
0.979
0.971
0.964
0.9580000000000001
0.9520000000000001
0.9460000000000001
0.9430000000000001
0.935
0.929
0.925
0.923
0.922
0.92
0.92
0.922
0.919
0.917
0.918
0.916
0.919
0.921
0.923
0.924
0.921
0.92
0.925
0.928
0.9380000000000001
0.9440000000000001
0.9550000000000001
0.962
0.969
0.973
0.978
0.988
0.993
0.995
1.0010000000000001
1.0050000000000001
1.01
1.0130000000000001
1.018
1.025
1.026
1.029
1.03
1.031
1.035
1.036
1.035
1.037
1.034
1.035
1.03
1.03
1.029
1.03
1.028
1.027
1.029
1.026
1.025
1.0230000000000001
1.022
1.02
1.0190000000000001
1.0210000000000001
1.024
1.027
1.027
1.033
1.03
1.031
1.031
1.028
1.034
1.034
1.035
1.035
1.035
1.034
1.032
1.029
1.025
1.024
1.0210000000000001
1.022
1.0170000000000001
1.014
1.0130000000000001
1.014
1.0150000000000001
1.0190000000000001
1.0230000000000001
1.024
1.026
1.026
1.024
1.022
1.0210000000000001
1.02
1.0210000000000001
1.0190000000000001
1.02
1.0230000000000001
1.024
1.0230000000000001
1.022
1.024
1.024
1.022
1.0190000000000001
1.018
1.0170000000000001
1.018
1.02
1.0190000000000001
1.022
1.025
1.028
1.031
1.036
1.038
1.039
1.043
1.047
1.052
1.059
1.066
1.077
1.081
1.091
1.095
1.101
1.103
1.103
1.105
1.107
1.104
1.111
1.104
1.099
1.099
1.095
1.089
1.091
1.085
1.085
1.077
1.077
1.07
1.066
1.059
1.055
1.049
1.051
1.049
1.054
1.057
1.057
1.053
1.051
1.048
1.046
1.042
1.037
1.034
1.03
1.026
1.024
1.0110000000000001
1.0150000000000001
1.0090000000000001
0.998
0.993
0.989
0.985
0.983
0.985
0.982
0.978
0.984
0.978
0.971
0.968
0.963
0.9570000000000001
0.9540000000000001
0.9530000000000001
0.9520000000000001
0.9520000000000001
0.9500000000000001
0.9450000000000001
0.9520000000000001
0.9520000000000001
0.9540000000000001
0.9510000000000001
0.9500000000000001
0.9500000000000001
0.9490000000000001
0.9490000000000001
0.9530000000000001
0.9520000000000001
0.9530000000000001
0.9560000000000001
0.9590000000000001
0.961
0.965
0.968
0.973
0.977
0.982
0.985
0.986
0.987
0.989
0.991
0.995
0.996
0.999
1.0
1.0030000000000001
1.0070000000000001
1.0070000000000001
1.0070000000000001
1.0090000000000001
1.0090000000000001
1.008
1.0050000000000001
1.002
0.998
0.993
0.987
0.983
0.976
0.969
0.964
0.9590000000000001
0.96
0.9560000000000001
0.9550000000000001
0.9550000000000001
0.9560000000000001
0.9570000000000001
0.9580000000000001
0.961
0.963
0.963
0.969
0.971
0.975
0.981
0.986
0.993
0.995
0.999
1.0050000000000001
1.008
1.012
1.014
1.0190000000000001
1.0230000000000001
1.024
1.027
1.03
1.033
1.035
1.038
1.039
1.039
1.044
1.044
1.045
1.047
1.049
1.051
1.055
1.056
1.057
1.062
1.064
1.067
1.071
1.075
1.078
1.08
1.082
1.085
1.086
1.089
1.091
1.094
1.097
1.102
1.102
1.105
1.107
1.108
1.109
1.109
1.112
1.114
1.116
1.117
1.118
1.118
1.117
1.115
1.111
1.114
1.113
1.111
1.109
1.107
1.107
1.104
1.103
1.102
1.1
1.098
1.096
1.095
1.094
1.093
1.09
1.085
1.082
1.08
1.076
1.073
1.071
1.068
1.061
1.059
1.053
1.045
1.038
1.029
1.0210000000000001
1.0110000000000001
1.0010000000000001
0.986
0.974
0.963
0.9510000000000001
0.9400000000000001
0.93
0.92
0.911
0.902
0.895
0.888
0.883
0.875
0.871
0.865
0.86
0.857
0.853
0.851
0.849
0.841
0.839
0.836
0.834
0.8310000000000001
0.8310000000000001
0.833
0.833
0.835
0.834
0.839
0.843
0.843
0.85
0.855
0.862
0.864
0.878
0.878
0.889
0.894
0.903
0.919
0.92
0.929
0.9380000000000001
0.9500000000000001
0.9520000000000001
0.9570000000000001
0.961
0.974
0.978
0.988
0.987
0.994
0.993
1.004
1.0030000000000001
1.0010000000000001
1.0110000000000001
1.018
1.018
1.024
1.0230000000000001
1.03
1.032
1.036
1.043
1.048
1.049
1.047
1.051
1.052
1.054
1.055
1.057
1.065
1.069
1.071
1.103
1.121
1.116
1.121
1.12
1.114
1.11
1.107
1.108
1.103
1.099
1.093
1.09
1.085
1.083
1.081
1.08
1.08
1.079
1.089
1.09
1.094
1.093
1.095
1.097
1.1
1.101
1.101
1.098
1.095
1.093
1.09
1.087
1.086
1.084
1.085
1.083
1.085
1.084
1.083
1.082
1.08
1.078
1.071
1.068
1.064
1.058
1.054
1.047
1.041
1.035
1.029
1.022
1.0150000000000001
1.006
0.998
0.993
0.985
0.978
0.974
0.967
0.961
0.9530000000000001
0.9490000000000001
0.9430000000000001
0.937
0.933
0.926
0.921
0.914
0.908
0.903
0.896
0.891
0.888
0.885
0.881
0.881
0.885
0.885
0.889
0.893
0.898
0.902
0.904
0.907
0.911
0.907
0.91
0.914
0.916
0.923
0.929
0.9390000000000001
0.9470000000000001
0.9530000000000001
0.9580000000000001
0.961
0.963
0.963
0.963
0.963
0.964
0.968
0.97
0.974
0.978
0.985
0.994
1.002
1.0090000000000001
1.0190000000000001
1.028
1.036
1.045
1.052
1.06
1.067
1.072
1.08
1.083
1.088
1.091
1.095
1.097
1.099
1.103
1.105
1.107
1.109
1.111
1.111
1.113
1.114
1.111
1.113
1.11
1.109
1.108
1.109
1.107
1.106
1.106
1.107
1.11
1.11
1.113
1.114
1.116
1.113
1.114
1.111
1.11
1.111
1.105
1.106
1.103
1.102
1.104
1.106
1.109
1.112
1.113
1.116
1.118
1.119
1.119
1.114
1.115
1.11
1.102
1.099
1.09
1.086
1.076
1.072
1.065
1.059
1.052
1.052
1.049
1.043
1.042
1.038
1.031
1.027
1.0210000000000001
1.0170000000000001
1.0130000000000001
1.0070000000000001
1.006
1.0
0.998
0.995
0.991
0.996
0.998
0.993
0.991
0.991
0.985
0.981
0.976
0.969
0.97
0.964
0.967
0.993
1.01
1.0090000000000001
1.0130000000000001
1.0150000000000001
1.012
1.0090000000000001
1.004
0.997
0.991
0.99
0.99
0.994
0.99
0.993
0.994
0.995
0.996
0.996
0.996
0.993
0.991
0.988
0.985
0.982
0.979
0.977
0.975
0.974
0.974
0.973
0.973
0.972
0.972
0.972
0.971
0.972
0.972
0.972
0.972
0.97
0.97
0.972
0.972
0.972
0.974
0.976
0.977
0.979
0.982
0.986
0.989
0.993
0.998
1.0030000000000001
1.0090000000000001
1.016
1.018
1.024
1.025
1.029
1.03
1.032
1.035
1.038
1.042
1.041
1.046
1.046
1.045
1.045
1.044
1.041
1.037
1.034
1.029
1.025
1.024
1.022
1.0230000000000001
1.024
1.026
1.027
1.029
1.031
1.033
1.034
1.037
1.037
1.039
1.035
1.036
1.032
1.031
1.028
1.026
1.026
1.0230000000000001
1.02
1.0210000000000001
1.018
1.0150000000000001
1.0170000000000001
1.0150000000000001
1.016
1.0150000000000001
1.014
1.0130000000000001
1.012
1.0110000000000001
1.012
1.0110000000000001
1.01
1.0110000000000001
1.0110000000000001
1.0110000000000001
1.0110000000000001
1.01
1.012
1.0150000000000001
1.0210000000000001
1.024
1.029
1.035
1.035
1.039
1.042
1.046
1.049
1.051
1.055
1.055
1.055
1.054
1.053
1.049
1.051
1.049
1.046
1.041
1.039
1.038
1.036
1.032
1.027
1.022
1.0170000000000001
1.014
1.0090000000000001
1.0030000000000001
1.0
0.999
0.996
0.997
0.995
0.993
0.99
0.99
0.991
0.993
0.995
0.996
1.0
1.0010000000000001
1.0030000000000001
1.004
1.0110000000000001
1.002
1.006
1.0
0.998
0.995
0.991
0.984
0.978
0.972
0.965
0.9590000000000001
0.9540000000000001
0.9480000000000001
0.9400000000000001
0.933
0.927
0.918
0.909
0.899
0.891
0.881
0.871
0.863
0.852
0.846
0.839
0.841
0.834
0.8280000000000001
0.8280000000000001
0.8230000000000001
0.8210000000000001
0.8170000000000001
0.8160000000000001
0.8180000000000001
0.812
0.8180000000000001
0.8150000000000001
0.8140000000000001
0.8190000000000001
0.8210000000000001
0.8230000000000001
0.8260000000000001
0.8300000000000001
0.835
0.835
0.839
0.846
0.85
0.854
0.86
0.867
0.873
0.881
0.906
0.9430000000000001
0.964
0.981
0.985
0.984
0.985
1.008
1.01
1.018
1.033
1.046
1.091
1.106
1.105
1.115
1.111
1.116
1.118
1.112
1.113
1.101
1.095
1.09
1.085
1.077
1.079
1.078
1.079
1.085
1.089
1.098
1.11
1.119
1.1320000000000001
1.1400000000000001
1.151
1.159
1.162
1.168
1.167
1.169
1.173
1.173
1.174
1.173
1.17
1.167
1.164
1.162
1.158
1.157
1.156
1.154
1.151
1.149
1.149
1.1500000000000001
1.145
1.141
1.139
1.1360000000000001
1.135
1.1320000000000001
1.133
1.131
1.1280000000000001
1.125
1.122
1.116
1.115
1.114
1.111
1.109
1.104
1.099
1.093
1.086
1.081
1.077
1.071
1.063
1.058
1.051
1.042
1.039
1.039
1.04
1.043
1.041
1.041
1.039
1.037
1.031
1.026
1.0230000000000001
1.0170000000000001
1.012
1.0110000000000001
1.01
1.008
1.01
1.0110000000000001
1.012
1.0110000000000001
1.0130000000000001
1.0150000000000001
1.0150000000000001
1.0210000000000001
1.026
1.031
1.037
1.04
1.041
1.043
1.043
1.043
1.039
1.031
1.0230000000000001
1.0130000000000001
1.0050000000000001
0.995
0.992
0.99
0.987
0.981
0.975
0.97
0.963
0.9590000000000001
0.9510000000000001
0.9440000000000001
0.9400000000000001
0.9390000000000001
0.9390000000000001
0.9430000000000001
0.9510000000000001
0.9590000000000001
0.97
0.981
0.99
0.995
1.002
1.0090000000000001
1.012
1.012
1.014
1.02
1.027
1.037
1.043
1.05
1.06
1.069
1.078
1.085
1.094
1.101
1.111
1.119
1.1260000000000001
1.133
1.137
1.145
1.1460000000000001
1.1520000000000001
1.157
1.163
1.167
1.173
1.187
1.195
1.204
1.214
1.219
1.225
1.229
1.231
1.23
1.232
1.233
1.232
1.227
1.225
1.206
1.202
1.196
1.191
1.191
1.194
1.196
1.199
1.196
1.194
1.187
1.178
1.165
1.1480000000000001
1.141
1.1320000000000001
1.127
1.12
1.118
1.099
1.091
1.076
1.07
1.065
1.05
1.039
1.033
1.0050000000000001
0.983
0.96
0.9400000000000001
0.921
0.9
0.903
0.903
0.9
0.906
0.919
0.9380000000000001
0.962
0.985
1.0010000000000001
1.0230000000000001
1.045
1.103
1.121
1.135
1.145
1.157
1.164
1.179
1.181
1.185
1.19
1.195
1.205
1.213
1.218
1.223
1.226
1.227
1.229
1.231
1.234
1.237
1.24
1.243
1.245
1.246
1.246
1.247
1.247
1.249
1.2510000000000001
1.2570000000000001
1.26
1.2630000000000001
1.2630000000000001
1.2610000000000001
1.258
1.254
1.249
1.247
1.245
1.244
1.245
1.245
1.243
1.241
1.235
1.231
1.231
1.227
1.223
1.22
1.215
1.212
1.209
1.205
1.2
1.199
1.197
1.19
1.176
1.169
1.157
1.147
1.1420000000000001
1.1380000000000001
1.131
1.1260000000000001
1.123
1.118
1.116
1.106
1.097
1.09
1.082
1.072
1.06
1.042
1.0210000000000001
0.998
0.973
0.9470000000000001
0.927
0.907
0.887
0.872
0.855
0.845
0.835
0.8250000000000001
0.8210000000000001
0.8210000000000001
0.8240000000000001
0.8310000000000001
0.837
0.849
0.859
0.874
0.888
0.909
0.932
0.9530000000000001
0.977
0.998
1.0210000000000001
1.043
1.065
1.087
1.109
1.1300000000000001
1.154
1.175
1.197
1.219
1.24
1.258
1.278
1.297
1.316
1.335
1.351
1.369
1.3840000000000001
1.4000000000000001
1.411
1.424
1.442
1.451
1.461
1.465
1.471
1.477
1.476
1.477
1.476
1.477
1.476
1.473
1.471
1.473
1.483
1.487
1.49
1.495
1.497
1.499
1.497
1.5010000000000001
1.496
1.489
1.483
1.47
1.455
1.437
1.417
1.395
1.3800000000000001
1.367
1.361
1.356
1.351
1.35
1.345
1.339
1.339
1.335
1.336
1.325
1.327
1.322
1.325
1.319
1.326
1.311
1.292
1.281
1.266
1.245
1.211
1.181
1.153
1.137
1.12
1.108
1.101
1.095
1.089
1.088
1.093
1.099
1.11
1.119
1.129
1.1400000000000001
1.1500000000000001
1.164
1.174
1.186
1.199
1.211
1.226
1.24
1.2570000000000001
1.272
1.285
1.299
1.311
1.323
1.33
1.34
1.343
1.35
1.357
1.368
1.381
1.3940000000000001
1.409
1.421
1.433
1.447
1.462
1.479
1.493
1.5090000000000001
1.5230000000000001
1.54
1.553
1.56
1.57
1.574
1.579
1.581
1.581
1.582
1.575
1.571
1.562
1.553
1.545
1.541
1.537
1.5310000000000001
1.5230000000000001
1.5150000000000001
1.5050000000000001
1.495
1.483
1.468
1.454
1.441
1.431
1.42
1.413
1.407
1.401
1.401
1.3980000000000001
1.395
1.3960000000000001
1.3980000000000001
1.4040000000000001
1.411
1.418
1.423
1.433
1.438
1.443
1.449
1.455
1.459
1.464
1.466
1.471
1.471
1.473
1.471
1.47
1.471
1.468
1.469
1.468
1.469
1.473
1.476
1.475
1.479
1.479
1.479
1.479
1.479
1.477
1.475
1.475
1.475
1.477
1.475
1.475
1.476
1.474
1.473
1.465
1.463
1.455
1.45
1.438
1.431
1.42
1.418
1.413
1.403
1.395
1.391
1.3860000000000001
1.374
1.369
1.357
1.351
1.343
1.34
1.337
1.331
1.329
1.323
1.326
1.325
1.326
1.329
1.327
1.33
1.333
1.336
1.341
1.346
1.347
1.348
1.353
1.355
1.357
1.361
1.365
1.365
1.372
1.3780000000000001
1.3840000000000001
1.393
1.3940000000000001
1.409
1.417
1.423
1.428
1.434
1.436
1.437
1.435
1.435
1.435
1.436
1.442
1.447
1.455
1.451
1.466
1.447
1.431
1.427
1.414
1.414
1.413
1.412
1.42
1.425
1.429
1.43
1.435
1.436
1.437
1.436
1.438
1.434
1.43
1.423
1.423
1.421
1.421
1.423
1.421
1.419
1.419
1.42
1.419
1.416
1.415
1.417
1.413
1.41
1.409
1.405
1.401
1.397
1.397
1.391
1.389
1.389
1.387
1.387
1.383
1.381
1.37
1.359
1.345
1.323
1.303
1.286
1.2670000000000001
1.2510000000000001
1.236
1.225
1.215
1.209
1.201
1.197
1.193
1.194
1.195
1.195
1.197
1.201
1.205
1.209
1.214
1.221
1.227
1.228
1.229
1.23
1.231
1.234
1.239
1.24
1.245
1.247
1.252
1.258
1.2630000000000001
1.2690000000000001
1.28
1.284
1.291
1.297
1.306
1.311
1.32
1.326
1.329
1.338
1.343
1.349
1.359
1.362
1.367
1.3780000000000001
1.387
1.3980000000000001
1.407
1.419
1.425
1.429
1.429
1.429
1.422
1.419
1.413
1.4040000000000001
1.397
1.391
1.3840000000000001
1.381
1.3800000000000001
1.379
1.3760000000000001
1.3780000000000001
1.381
1.383
1.385
1.3880000000000001
1.387
1.387
1.3840000000000001
1.3820000000000001
1.377
1.373
1.372
1.367
1.367
1.366
1.365
1.366
1.367
1.364
1.363
1.363
1.359
1.354
1.356
1.348
1.343
1.34
1.335
1.331
1.329
1.325
1.321
1.317
1.311
1.306
1.299
1.29
1.2790000000000001
1.2670000000000001
1.26
1.2550000000000001
1.247
1.246
1.242
1.24
1.239
1.237
1.231
1.227
1.229
1.225
1.223
1.222
1.216
1.207
1.214
1.213
1.214
1.221
1.22
1.221
1.22
1.22
1.22
1.217
1.215
1.216
1.216
1.222
1.234
1.2770000000000001
1.2710000000000001
1.2750000000000001
1.2690000000000001
1.274
1.272
1.2730000000000001
1.274
1.2710000000000001
1.2690000000000001
1.2670000000000001
1.2630000000000001
1.262
1.262
1.2590000000000001
1.2590000000000001
1.2610000000000001
1.262
1.2630000000000001
1.262
1.2630000000000001
1.258
1.2590000000000001
1.262
1.2630000000000001
1.2650000000000001
1.2690000000000001
1.272
1.276
1.278
1.282
1.286
1.289
1.294
1.297
1.297
1.299
1.301
1.299
1.299
1.3
1.302
1.302
1.299
1.294
1.291
1.29
1.291
1.294
1.298
1.302
1.307
1.314
1.313
1.317
1.321
1.323
1.326
1.33
1.33
1.333
1.332
1.33
1.331
1.327
1.327
1.325
1.321
1.32
1.317
1.314
1.311
1.306
1.302
1.299
1.292
1.286
1.286
1.282
1.278
1.2750000000000001
1.2710000000000001
1.268
1.2650000000000001
1.26
1.256
1.252
1.247
1.246
1.243
1.239
1.233
1.23
1.227
1.224
1.221
1.217
1.214
1.21
1.207
1.207
1.202
1.198
1.195
1.193
1.191
1.19
1.189
1.188
1.185
1.181
1.179
1.18
1.179
1.177
1.176
1.174
1.173
1.172
1.171
1.17
1.167
1.166
1.165
1.164
1.163
1.161
1.159
1.159
1.159
1.158
1.161
1.163
1.164
1.167
1.167
1.167
1.167
1.17
1.169
1.173
1.174
1.176
1.178
1.177
1.179
1.181
1.182
1.182
1.185
1.188
1.191
1.191
1.193
1.193
1.193
1.193
1.194
1.195
1.195
1.196
1.197
1.197
1.192
1.191
1.191
1.189
1.19
1.192
1.193
1.193
1.193
1.195
1.194
1.197
1.198
1.196
1.196
1.195
1.191
1.195
1.198
1.196
1.191
1.197
1.195
1.195
1.196
1.199
1.199
1.199
1.2
1.199
1.194
1.199
1.197
1.203
1.205
1.201
1.202
1.198
1.196
1.191
1.187
1.187
1.182
1.18
1.185
1.177
1.182
1.182
1.18
1.186
1.183
1.185
1.182
1.18
1.183
1.177
1.169
1.172
1.164
1.166
1.167
1.176
1.17
1.169
1.163
1.159
1.159
1.159
1.153
1.154
1.164
1.155
1.161
1.158
1.167
1.162
1.167
1.165
1.165
1.159
1.157
1.157
1.155
1.155
1.153
1.1500000000000001
1.147
1.147
1.1380000000000001
1.133
1.129
1.125
1.12
1.116
1.114
1.113
1.111
1.111
1.108
1.107
1.106
1.104
1.103
1.103
1.104
1.105
1.106
1.105
1.106
1.108
1.109
1.113
1.117
1.122
1.129
1.1320000000000001
1.1340000000000001
1.137
1.1380000000000001
1.1380000000000001
1.137
1.133
1.133
1.131
1.1300000000000001
1.129
1.125
1.125
1.121
1.119
1.115
1.113
1.111
1.109
1.106
1.103
1.1
1.097
1.095
1.094
1.092
1.093
1.091
1.093
1.094
1.095
1.097
1.099
1.1
1.102
1.105
1.105
1.106
1.107
1.109
1.11
1.111
1.113
1.113
1.115
1.117
1.117
1.122
1.124
1.125
1.123
1.125
1.122
1.12
1.122
1.119
1.119
1.114
1.119
1.118
1.119
1.119
1.118
1.117
1.116
1.113
1.111
1.11
1.107
1.103
1.103
1.099
1.098
1.095
1.095
1.092
1.092
1.093
1.092
1.094
1.097
1.099
1.099
1.101
1.104
1.105
1.107
1.108
1.105
1.102
1.098
1.091
1.08
1.071
1.06
1.047
1.034
1.022
1.01
0.996
0.986
0.974
0.965
0.9560000000000001
0.9430000000000001
0.935
0.927
0.924
0.921
0.918
0.917
0.916
0.916
0.917
0.92
0.921
0.923
0.923
0.923
0.926
0.928
0.93
0.933
0.9380000000000001
0.9420000000000001
0.9430000000000001
0.9470000000000001
0.9510000000000001
0.9570000000000001
0.961
0.967
0.973
0.977
0.983
0.989
0.991
0.999
1.0070000000000001
1.018
1.027
1.039
1.05
1.059
1.068
1.079
1.089
1.102
1.115
1.124
1.1340000000000001
1.1420000000000001
1.1480000000000001
1.1520000000000001
1.155
1.156
1.153
1.151
1.1480000000000001
1.1400000000000001
1.135
1.124
1.12
1.115
1.106
1.098
1.09
1.082
1.074
1.07
1.061
1.053
1.053
1.045
1.038
1.031
1.024
1.0230000000000001
1.02
1.018
1.014
1.0170000000000001
1.0110000000000001
1.0070000000000001
1.01
1.006
1.0010000000000001
1.0010000000000001
0.998
0.988
0.991
0.995
0.993
0.994
0.999
1.0
1.004
0.997
0.996
0.99
0.991
0.995
0.997
0.999
1.004
1.0030000000000001
1.008
1.008
1.0110000000000001
1.0010000000000001
1.0030000000000001
0.999
0.999
0.997
1.0
0.996
0.997
0.997
0.998
1.0
0.999
0.997
0.993
0.987
0.983
0.979
0.975
0.97
0.967
0.962
0.9580000000000001
0.9520000000000001
0.9480000000000001
0.9440000000000001
0.9410000000000001
0.933
0.93
0.929
0.923
0.918
0.919
0.914
0.914
0.911
0.907
0.905
0.902
0.901
0.9
0.897
0.895
0.893
0.889
0.883
0.877
0.873
0.869
0.864
0.862
0.859
0.855
0.855
0.855
0.855
0.854
0.858
0.857
0.861
0.862
0.866
0.87
0.875
0.882
0.888
0.896
0.903
0.91
0.918
0.923
0.929
0.933
0.937
0.9390000000000001
0.9430000000000001
0.9440000000000001
0.9470000000000001
0.9470000000000001
0.9500000000000001
0.9500000000000001
0.9530000000000001
0.9550000000000001
0.9550000000000001
0.9550000000000001
0.9500000000000001
0.9490000000000001
0.9470000000000001
0.9460000000000001
0.9420000000000001
0.9410000000000001
0.9400000000000001
0.937
0.935
0.935
0.933
0.93
0.93
0.928
0.929
0.927
0.927
0.927
0.931
0.931
0.933
0.937
0.9380000000000001
0.9390000000000001
0.9390000000000001
0.9410000000000001
0.9410000000000001
0.9430000000000001
0.9410000000000001
0.9410000000000001
0.9380000000000001
0.937
0.935
0.935
0.937
0.9380000000000001
0.932
0.932
0.932
0.931
0.931
0.932
0.931
0.933
0.932
0.931
0.933
0.935
0.934
0.936
0.9420000000000001
0.9450000000000001
0.9480000000000001
0.9540000000000001
0.9570000000000001
0.961
0.965
0.967
0.971
0.975
0.975
0.978
0.979
0.978
0.981
0.979
0.983
0.984
0.984
0.987
0.987
0.99
0.993
0.992
0.996
0.997
0.997
0.998
0.997
0.999
0.997
0.995
0.993
0.995
0.99
0.994
0.998
0.999
1.004
1.0090000000000001
1.0110000000000001
1.018
1.0190000000000001
1.0230000000000001
1.025
1.025
1.026
1.025
1.025
1.025
1.026
1.025
1.026
1.025
1.025
1.027
1.024
1.0230000000000001
1.0230000000000001
1.0210000000000001
1.0170000000000001
1.0170000000000001
1.0170000000000001
1.012
1.0130000000000001
1.0090000000000001
1.006
1.002
0.999
0.995
0.988
0.984
0.975
0.975
0.972
0.97
0.961
0.9570000000000001
0.9470000000000001
0.935
0.926
0.915
0.903
0.896
0.888
0.878
0.876
0.868
0.852
0.843
0.864
0.883
0.886
0.886
0.897
0.915
0.932
0.9430000000000001
0.961
0.981
1.004
1.0230000000000001
1.047
1.073
1.092
1.111
1.139
1.156
1.171
1.185
1.201
1.211
1.219
1.227
1.234
1.238
1.243
1.249
1.2550000000000001
1.2630000000000001
1.2710000000000001
1.2770000000000001
1.285
1.291
1.299
1.299
1.301
1.303
1.303
1.303
1.303
1.302
1.302
1.304
1.304
1.301
1.303
1.301
1.301
1.302
1.301
1.298
1.297
1.293
1.289
1.287
1.28
1.2790000000000001
1.2790000000000001
1.2790000000000001
1.28
1.282
1.285
1.287
1.291
1.294
1.305
1.31
1.317
1.324
1.331
1.337
1.343
1.349
1.355
1.362
1.367
1.371
1.375
1.379
1.381
1.3820000000000001
1.383
1.387
1.3900000000000001
1.397
1.397
1.399
1.405
1.408
1.415
1.418
1.427
1.432
1.437
1.441
1.445
1.447
1.448
1.447
1.451
1.454
1.456
1.458
1.459
1.461
1.463
1.462
1.463
1.468
1.469
1.472
1.477
1.479
1.478
1.478
1.475
1.469
1.469
1.465
1.458
1.458
1.453
1.458
1.456
1.458
1.456
1.457
1.461
1.463
1.463
1.467
1.473
1.478
1.483
1.488
1.491
1.494
1.494
1.499
1.5030000000000001
1.514
1.522
1.5270000000000001
1.5330000000000001
1.536
1.537
1.539
1.541
1.544
1.55
1.558
1.566
1.571
1.577
1.579
1.578
1.577
1.575
1.572
1.573
1.571
1.567
1.571
1.572
1.572
1.575
1.575
1.575
1.572
1.571
1.57
1.571
1.575
1.577
1.582
1.591
1.601
1.61
1.62
1.6320000000000001
1.6480000000000001
1.6620000000000001
1.685
1.707
1.723
1.743
1.7610000000000001
1.78
1.801
1.82
1.839
1.859
1.875
1.893
1.9000000000000001
1.913
1.925
1.922
1.929
1.933
1.942
1.946
1.947
1.95
1.954
1.964
1.975
1.99
1.998
2.011
2.02
2.035
2.0420000000000003
2.057
2.066
2.079
2.191
2.271
2.313
2.329
2.349
2.356
2.367
2.374
2.382
2.391
2.4
2.402
2.4130000000000003
2.4210000000000003
2.428
2.437
2.447
2.455
2.463
2.471
2.473
2.479
2.487
2.495
2.507
2.519
2.531
2.5460000000000003
2.557
2.57
2.582
2.595
2.599
2.605
2.613
2.621
2.6270000000000002
2.6350000000000002
2.6430000000000002
2.649
2.657
2.67
2.677
2.686
2.695
2.707
2.717
2.727
2.739
2.751
2.759
2.771
2.781
2.793
2.801
2.8120000000000003
2.825
2.837
2.852
2.863
2.875
2.89
2.903
2.918
2.931
2.945
2.957
2.967
2.978
2.987
2.998
3.007
3.015
3.029
3.039
3.0500000000000003
3.065
3.075
3.087
3.101
3.114
3.123
3.134
3.145
3.157
3.1710000000000003
3.1830000000000003
3.1950000000000003
3.209
3.22
3.233
3.245
3.255
3.265
3.271
3.281
3.29
3.301
3.311
3.323
3.335
3.347
3.359
3.371
3.3850000000000002
3.403
3.423
3.435
3.4490000000000003
3.463
3.474
3.487
3.495
3.509
3.519
3.527
3.539
3.547
3.561
3.575
3.587
3.603
3.619
3.636
3.653
3.669
3.685
3.6990000000000003
3.715
3.729
3.741
3.751
3.759
3.767
3.771
3.775
3.778
3.778
3.782
3.787
3.795
3.805
3.815
3.825
3.835
3.845
3.855
3.863
3.874
3.883
3.895
3.903
3.915
3.9250000000000003
3.94
3.9450000000000003
3.955
3.969
3.979
3.993
4.007
4.018
4.031
4.039
4.051
4.063
4.075
4.087
4.095
4.095
4.095
4.095
4.095
4.095
4.095
4.095
4.095
4.095
4.095
4.095
4.095
4.095
4.095
4.095
4.095
4.095
4.095
4.095
4.095
4.095
4.095
4.095
4.095
4.095
4.095
4.095
4.095
4.095
4.095
4.095
4.095
4.095
4.095
4.095
4.095
4.095
4.095
4.095
4.095
4.095
4.095
4.095
4.095
4.095
4.095
4.095
4.095
4.095
4.095
4.095
4.095
4.095
4.095
4.095
4.095
4.095
4.095
4.095
4.095
4.095
4.095
4.095
4.095
4.095
4.095
4.095
4.095
4.095
4.095
4.095
4.095
4.095
4.095
4.095
4.095
4.095
4.095
4.095
4.095
4.095
4.095
4.095
4.095
4.095
4.095
4.095
4.095
4.095
4.095
4.095
4.095
4.095
4.095
4.095
4.095
4.095
4.095
4.095
4.095
4.095
4.095
4.095
4.095
4.095
4.095
4.095
4.095
4.095
4.095
4.095
4.095
4.095
4.095
4.095
4.095
4.095
4.095
4.095
4.095
4.095
4.095
4.095
4.095
4.095
4.095
4.095
4.095
4.095
4.095
4.095
4.095
4.095
4.095
4.095
4.095
4.095
4.095
4.095
4.095
4.095
4.095
4.095
4.095
4.095
4.095
4.095
4.095
4.095
4.095
4.095
4.095
4.095
4.095
4.095
4.095
4.095
4.095
4.095
4.095
4.095
4.095
4.095
4.095
4.095
4.095
4.095
4.095
4.095
4.095
4.095
4.095
4.095
4.095
4.095
4.095
4.095
4.095
4.095
4.095
4.095
4.095
4.095
4.095
4.095
4.095
4.095
4.095
4.095
4.095
4.095
4.095
4.095
4.095
4.095
4.095
4.095
4.095
4.095
4.095
4.095
4.095
4.095
4.095
4.095
4.095
4.095
4.095
4.095
4.095
4.095
4.095
4.095
4.095
4.095
4.095
4.095
4.095
4.095
4.095
4.095
4.095
4.095
4.095
4.095
4.095
4.095
4.095
4.095
4.095
4.095
4.095
4.095
4.095
4.095
4.095
4.095
4.095
4.095
4.095
4.095
4.095
4.095
4.095
4.095
4.095
4.095
4.095
4.095
4.095
4.095
4.095
4.095
4.095
4.095
4.095
4.095
4.095
4.095
4.095
4.095
4.095
4.095
4.095
4.095
4.095
4.095
4.095
4.095
4.095
4.095
4.095
4.095
4.095
4.095
4.095
4.095
4.095
4.095
4.095
4.095
4.095
4.095
4.095
4.095
4.095
4.095
4.095
4.095
4.095
4.095
4.095
4.095
4.095
4.095
4.095
4.095
4.095
4.095
4.095
4.095
4.095
4.095
4.095
4.095
4.095
4.095
4.095
4.095
4.095
4.095
4.095
4.095
4.095
4.095
4.095
4.095
4.095
4.095
4.095
4.095
4.095
4.095
4.095
4.095
4.095
4.095
4.095
4.095
4.095
4.095
4.095
4.095
4.095
4.095
4.095
4.095
4.095
4.095
4.095
4.095
4.095
4.095
4.095
4.095
4.095
4.095
4.095
4.095
4.095
4.095
4.095
4.095
4.095
4.095
4.095
4.095
4.095
4.095
4.095
4.095
4.095
4.095
4.095
4.095
4.095
4.095
4.095
4.095
4.095
4.095
4.095
4.095
4.095
4.095
4.095
4.095
4.095
4.095
4.095
4.095
4.095
4.095
4.095
4.095
4.095
4.095
4.095
4.095
4.095
4.095
4.095
4.095
4.095
4.095
4.095
4.095
4.095
4.095
4.095
4.095
4.095
4.095
4.095
4.095
4.095
4.095
4.095
4.095
4.095
4.095
4.095
4.095
4.095
4.095
4.095
4.095
4.095
4.095
4.095
4.095
4.095
4.095
4.095
4.093
4.086
4.091
4.091
4.078
4.073
4.069
4.062
4.063
4.061
4.058
4.055
4.053
4.049
4.046
4.045
4.043
4.039
4.041
4.035
4.035
4.031
4.031
4.027
4.022
4.017
4.007
4.002
3.995
3.989
3.987
3.983
3.979
3.975
3.978
3.975
3.973
3.972
3.971
3.967
3.963
3.955
3.951
3.9450000000000003
3.931
3.93
3.9210000000000003
3.911
3.902
3.9010000000000002
3.891
3.8850000000000002
3.874
3.871
3.858
3.854
3.849
3.84
3.839
3.83
3.8320000000000003
3.826
3.815
3.811
3.807
3.802
3.789
3.775
3.757
3.741
3.723
3.709
3.668
3.654
3.652
3.641
3.629
3.622
3.619
3.608
3.595
3.584
3.573
3.563
3.551
3.537
3.529
3.5140000000000002
3.5020000000000002
3.487
3.479
3.467
3.459
3.4530000000000003
3.444
3.439
3.4370000000000003
3.434
3.428
3.423
3.419
3.414
3.407
3.406
3.4050000000000002
3.399
3.399
3.3890000000000002
3.387
3.383
3.382
3.379
3.375
3.38
3.379
3.375
3.37
3.366
3.357
3.347
3.337
3.327
3.315
3.307
3.303
3.299
3.301
3.298
3.295
3.294
3.295
3.294
3.295
3.291
3.291
3.295
3.301
3.307
3.3120000000000003
3.322
3.331
3.339
3.345
3.355
3.359
3.359
3.359
3.354
3.343
3.331
3.315
3.295
3.277
3.261
3.235
3.219
3.203
3.193
3.1830000000000003
3.176
3.1670000000000003
3.1590000000000003
3.1510000000000002
3.145
3.1390000000000002
3.133
3.1270000000000002
3.12
3.113
3.107
3.091
3.081
3.072
3.063
3.055
3.051
3.045
3.039
3.033
3.025
3.019
3.011
3.001
2.991
2.99
2.981
2.977
2.975
2.973
2.967
2.963
2.957
2.949
2.943
2.9330000000000003
2.9290000000000003
2.919
2.914
2.9090000000000003
2.9050000000000002
2.898
2.8890000000000002
2.882
2.871
2.859
2.847
2.835
2.827
2.819
2.806
2.7960000000000003
2.789
2.783
2.775
2.767
2.765
2.762
2.755
2.749
2.743
2.731
2.723
2.718
2.711
2.703
2.695
2.693
2.685
2.673
2.6710000000000003
2.6630000000000003
2.6550000000000002
2.653
2.649
2.6430000000000002
2.6350000000000002
2.629
2.623
2.618
2.612
2.612
2.611
2.613
2.619
2.62
2.628
2.6310000000000002
2.633
2.6310000000000002
2.63
2.626
2.619
2.614
2.607
2.601
2.593
2.587
2.583
2.583
2.583
2.585
2.589
2.591
2.59
2.591
2.585
2.584
2.582
2.577
2.572
2.5580000000000003
2.5460000000000003
2.535
2.525
2.521
2.511
2.505
2.492
2.486
2.479
2.471
2.466
2.463
2.457
2.451
2.441
2.431
2.42
2.41
2.399
2.399
2.382
2.376
2.37
2.355
2.35
2.342
2.341
2.33
2.321
2.309
2.299
2.294
2.261
2.239
2.225
2.215
2.202
2.19
2.172
2.166
2.153
2.1350000000000002
2.126
2.115
2.106
2.094
2.083
2.082
2.066
2.066
2.049
2.044
2.0420000000000003
2.041
2.0420000000000003
2.043
2.049
2.054
2.053
2.053
2.05
2.043
2.041
2.037
2.029
2.0260000000000002
2.019
2.015
2.011
2.004
1.999
1.995
1.99
1.983
1.979
1.972
1.965
1.956
1.951
1.943
1.943
1.942
1.939
1.94
1.938
1.937
1.935
1.935
1.933
1.931
1.927
1.926
1.922
1.917
1.911
1.907
1.9020000000000001
1.8980000000000001
1.8960000000000001
1.8900000000000001
1.885
1.8820000000000001
1.8780000000000001
1.875
1.871
1.869
1.863
1.86
1.851
1.842
1.83
1.823
1.815
1.807
1.799
1.7910000000000001
1.7850000000000001
1.778
1.7770000000000001
1.7710000000000001
1.7670000000000001
1.7670000000000001
1.764
1.7650000000000001
1.7630000000000001
1.766
1.7670000000000001
1.77
1.7730000000000001
1.7750000000000001
1.7770000000000001
1.7830000000000001
1.788
1.795
1.799
1.801
1.803
1.809
1.808
1.811
1.811
1.811
1.809
1.808
1.803
1.799
1.7910000000000001
1.778
1.7610000000000001
1.744
1.734
1.719
1.707
1.695
1.685
1.674
1.6640000000000001
1.653
1.645
1.6340000000000001
1.6280000000000001
1.623
1.618
1.615
1.613
1.609
1.607
1.606
1.602
1.599
1.593
1.585
1.581
1.577
1.571
1.567
1.559
1.551
1.547
1.539
1.5330000000000001
1.52
1.514
1.5030000000000001
1.489
1.485
1.474
1.462
1.455
1.452
1.449
1.446
1.444
1.441
1.439
1.438
1.436
1.436
1.434
1.437
1.435
1.435
1.437
1.437
1.443
1.447
1.453
1.462
1.46
1.464
1.463
1.463
1.461
1.46
1.454
1.449
1.443
1.444
1.433
1.429
1.423
1.423
1.419
1.407
1.389
1.381
1.377
1.375
1.365
1.366
1.357
1.343
1.337
1.332
1.315
1.313
1.306
1.305
1.303
1.298
1.293
1.291
1.286
1.28
1.2770000000000001
1.2710000000000001
1.268
1.262
1.262
1.258
1.2530000000000001
1.2510000000000001
1.248
1.243
1.241
1.237
1.233
1.231
1.223
1.216
1.215
1.209
1.203
1.199
1.191
1.183
1.181
1.177
1.169
1.165
1.16
1.154
1.1480000000000001
1.145
1.137
1.1320000000000001
1.124
1.118
1.113
1.107
1.101
1.096
1.09
1.085
1.081
1.076
1.073
1.071
1.072
1.068
1.066
1.068
1.067
1.068
1.067
1.066
1.061
1.059
1.054
1.052
1.052
1.05
1.05
1.049
1.05
1.052
1.054
1.051
1.053
1.052
1.053
1.05
1.049
1.048
1.05
1.05
1.047
1.049
1.047
1.045
1.043
1.041
1.039
1.036
1.035
1.032
1.031
1.032
1.033
1.035
1.033
1.035
1.035
1.033
1.028
1.029
1.022
1.0210000000000001
1.016
1.0150000000000001
1.01
1.0030000000000001
0.997
0.998
1.0010000000000001
1.0010000000000001
0.999
0.999
1.0
1.0
0.999
0.999
1.0
1.0010000000000001
0.999
0.997
0.994
0.994
0.986
0.982
0.978
0.973
0.97
0.963
0.9570000000000001
0.9490000000000001
0.9430000000000001
0.9400000000000001
0.937
0.934
0.932
0.933
0.93
0.923
0.91
0.902
0.895
0.888
0.882
0.875
0.864
0.852
0.847
0.837
0.8310000000000001
0.8210000000000001
0.812
0.802
0.795
0.787
0.775
0.767
0.766
0.757
0.754
0.746
0.736
0.733
0.728
0.726
0.719
0.712
0.706
0.6960000000000001
0.6900000000000001
0.6910000000000001
0.676
0.663
0.655
0.655
0.657
0.653
0.655
0.661
0.664
0.67
0.671
0.678
0.681
0.6890000000000001
0.6940000000000001
0.6940000000000001
0.7010000000000001
0.7030000000000001
0.707
0.711
0.71
0.71
0.716
0.714
0.714
0.715
0.714
0.715
0.715
0.718
0.721
0.725
0.727
0.73
0.735
0.739
0.745
0.748
0.753
0.755
0.755
0.763
0.761
0.763
0.765
0.766
0.767
0.765
0.762
0.761
0.757
0.754
0.751
0.749
0.745
0.744
0.743
0.741
0.737
0.742
0.738
0.737
0.734
0.732
0.729
0.726
0.723
0.72
0.717
0.715
0.712
0.708
0.704
0.7010000000000001
0.6980000000000001
0.6940000000000001
0.6910000000000001
0.6880000000000001
0.684
0.682
0.679
0.677
0.673
0.672
0.669
0.668
0.667
0.665
0.662
0.66
0.659
0.657
0.654
0.652
0.652
0.65
0.649
0.646
0.644
0.64
0.637
0.636
0.633
0.63
0.627
0.624
0.622
0.619
0.616
0.612
0.611
0.608
0.602
0.601
0.595
0.595
0.591
0.586
0.583
0.581
0.577
0.5710000000000001
0.5730000000000001
0.5690000000000001
0.5650000000000001
0.5630000000000001
0.56
0.557
0.551
0.548
0.543
0.54
0.538
0.534
0.533
0.53
0.527
0.527
0.523
0.523
0.523
0.523
0.519
0.519
0.516
0.516
0.516
0.516
0.515
0.515
0.515
0.512
0.511
0.512
0.51
0.509
0.508
0.509
0.507
0.507
0.506
0.503
0.502
0.501
0.502
0.499
0.5
0.499
0.499
0.499
0.497
0.497
0.497
0.497
0.498
0.498
0.498
0.498
0.497
0.496
0.493
0.491
0.486
0.48
0.47900000000000004
0.47600000000000003
0.47500000000000003
0.47200000000000003
0.47000000000000003
0.468
0.465
0.465
0.462
0.465
0.463
0.461
0.461
0.463
0.46
0.46
0.46
0.459
0.462
0.461
0.46900000000000003
0.463
0.467
0.464
0.465
0.47300000000000003
0.47600000000000003
0.47800000000000004
0.485
0.487
0.491
0.493
0.499
0.496
0.502
0.504
0.499
0.498
0.494
0.493
0.494
0.491
0.494
0.494
0.494
0.491
0.487
0.488
0.486
0.47800000000000004
0.47800000000000004
0.47700000000000004
0.47200000000000003
0.47000000000000003
0.47100000000000003
0.465
0.457
0.452
0.439
0.421
0.40800000000000003
0.405
0.406
0.402
0.399
0.397
0.389
0.387
0.382
0.377
0.372
0.365
0.369
0.364
0.365
0.361
0.363
0.364
0.362
0.365
0.363
0.363
0.361
0.359
0.358
0.355
0.353
0.35100000000000003
0.34600000000000003
0.34500000000000003
0.341
0.339
0.337
0.333
0.329
0.325
0.322
0.318
0.316
0.308
0.305
0.302
0.3
0.294
0.296
0.294
0.292
0.28700000000000003
0.29
0.292
0.28600000000000003
0.28700000000000003
0.292
0.29
0.291
0.292
0.294
0.293
0.295
0.294
0.297
0.298
0.297
0.296
0.295
0.293
0.293
0.293
0.294
0.294
0.294
0.295
0.296
0.296
0.296
0.298
0.298
0.299
0.3
0.3
0.302
0.302
0.302
0.303
0.302
0.3
0.305
0.304
0.305
0.305
0.307
0.307
0.308
0.309
0.311
0.311
0.313
0.313
0.314
0.315
0.316
0.317
0.319
0.316
0.317
0.319
0.321
0.321
0.324
0.324
0.325
0.329
0.322
0.322
0.321
0.328
0.325
0.327
0.329
0.331
0.331
0.331
0.33
0.329
0.327
0.326
0.323
0.321
0.321
0.319
0.317
0.315
0.315
0.315
0.314
0.314
0.313
0.312
0.311
0.309
0.307
0.306
0.304
0.303
0.301
0.299
0.298
0.296
0.295
0.294
0.295
0.294
0.292
0.291
0.28700000000000003
0.28600000000000003
0.28600000000000003
0.28300000000000003
0.281
0.279
0.276
0.273
0.271
0.268
0.268
0.265
0.263
0.259
0.256
0.254
0.252
0.253
0.248
0.245
0.242
0.23800000000000002
0.23600000000000002
0.233
0.231
0.229
0.226
0.223
0.221
0.218
0.213
0.21
0.209
0.20800000000000002
0.20700000000000002
0.203
0.202
0.201
0.199
0.197
0.198
0.193
0.193
0.188
0.187
0.183
0.178
0.179
0.17500000000000002
0.17300000000000001
0.17200000000000001
0.17
0.17200000000000001
0.171
0.171
0.168
0.167
0.166
0.164
0.163
0.158
0.159
0.157
0.156
0.153
0.153
0.152
0.152
0.152
0.15
0.152
0.149
0.14200000000000002
0.147
0.14300000000000002
0.14300000000000002
0.146
0.146
0.15
0.148
0.153
0.152
0.148
0.149
0.155
0.149
0.16
0.156
0.167
0.168
0.169
0.167
0.17300000000000001
0.177
0.19
0.183
0.19
0.192
0.191
0.19
0.187
0.187
0.193
0.19
0.193
0.192
0.192
0.189
0.194
0.191
0.194
0.194
0.194
0.19
0.192
0.194
0.197
0.201
0.199
0.196
0.198
0.197
0.198
0.197
0.197
0.197
0.196
0.197
0.193
0.191
0.188
0.187
0.186
0.185
0.182
0.182
0.178
0.179
0.177
0.17400000000000002
0.17200000000000001
0.17
0.168
0.167
0.166
0.162
0.16
0.156
0.155
0.154
0.153
0.151
0.149
0.147
0.145
0.14400000000000002
0.14300000000000002
0.14100000000000001
0.14100000000000001
0.138
0.138
0.137
0.134
0.125
0.128
0.125
0.123
0.11900000000000001
0.116
0.116
0.113
0.112
0.109
0.107
0.10400000000000001
0.101
0.097
0.096
0.094
0.091
0.09
0.089
0.088
0.088
0.088
0.08700000000000001
0.085
0.083
0.08
0.079
0.074
0.075
0.074
0.073
0.075
0.073
0.074
0.073
0.074
0.073
0.07200000000000001
0.07200000000000001
0.07100000000000001
0.07100000000000001
0.07200000000000001
0.07200000000000001
0.07200000000000001
0.069
0.07
0.07100000000000001
0.07100000000000001
0.073
0.075
0.073
0.074
0.074
0.068
0.07
0.07100000000000001
0.07100000000000001
0.069
0.069
0.07
0.07100000000000001
0.073
0.074
0.076
0.077
0.078
0.078
0.08
0.082
0.083
0.08600000000000001
0.088
0.088
0.091
0.093
0.097
0.098
0.1
0.101
0.10200000000000001
0.105
0.107
0.109
0.111
0.113
0.115
0.115
0.12
0.121
0.123
0.127
0.128
0.131
0.131
0.134
0.133
0.136
0.138
0.138
0.14
0.139
0.139
0.14
0.14200000000000002
0.14300000000000002
0.14400000000000002
0.14300000000000002
0.147
0.147
0.148
0.149
0.14300000000000002
0.147
0.146
0.14100000000000001
0.139
0.136
0.138
0.139
0.14300000000000002
0.14400000000000002
0.14400000000000002
0.14100000000000001
0.138
0.132
0.124
0.117
0.11900000000000001
0.11800000000000001
0.115
0.115
0.113
0.107
0.105
0.10300000000000001
0.10200000000000001
0.098
0.096
0.096
0.099
0.092
0.093
0.098
0.099
0.097
0.099
0.096
0.098
0.096
0.095
0.092
0.088
0.091
0.088
0.085
0.08700000000000001
0.08700000000000001
0.085
0.08600000000000001
0.076
0.076
0.078
0.07100000000000001
0.073
0.075
0.076
0.077
0.075
0.07200000000000001
0.066
0.065
0.058
0.058
0.054
0.045
0.037
0.037
0.031
0.029
0.027
0.035
0.027
0.024
0.017
0.024
0.019
0.018000000000000002
0.019
0.016
0.015
0.014
0.016
0.009000000000000001
0.015
0.007
0.018000000000000002
0.015
0.018000000000000002
0.018000000000000002
0.023
0.021
0.019
0.021
0.024
0.026000000000000002
0.027
0.03
0.031
0.034
0.034
0.033
0.036000000000000004
0.037
0.038
0.039
0.039
0.04
0.039
0.042
0.04
0.046
0.044
0.044
0.045
0.048
0.046
0.051000000000000004
0.049
0.047
0.05
0.048
0.05
0.048
0.049
0.051000000000000004
0.049
0.051000000000000004
0.052000000000000005
0.051000000000000004
0.051000000000000004
0.051000000000000004
0.051000000000000004
0.052000000000000005
0.052000000000000005
0.055
0.057
0.061
0.06
0.06
0.063
0.062
0.063
0.066
0.065
0.069
0.069
0.068
0.068
0.066
0.063
0.064
0.06
0.057
0.056
0.051000000000000004
0.053
0.051000000000000004
0.051000000000000004
0.052000000000000005
0.051000000000000004
0.051000000000000004
0.05
0.049
0.049
0.048
0.049
0.049
0.05
0.051000000000000004
0.051000000000000004
0.049
0.051000000000000004
0.053
0.051000000000000004
0.053
0.05
0.051000000000000004
0.048
0.045
0.044
0.041
0.04
0.04
0.038
0.035
0.035
0.031
0.029
0.027
0.026000000000000002
0.024
0.022
0.021
0.019
0.016
0.016
0.015
0.012
0.012
0.01
0.008
0.007
0.003
0.006
0.004
0.002
0.003
0.003
0.003
0.003
0.002
0.002
0.0
0.001
0.002
0.002
0.001
0.001
0.003
0.0
0.003
0.002
0.001
0.003
0.001
0.002
0.002
0.001
0.002
0.001
0.002
0.002
0.003
0.002
0.002
0.0
0.002
0.002
0.002
0.003
0.002
0.001
0.001
0.002
0.002
0.002
0.002
0.002
0.002
0.001
0.0
0.0
0.002
0.0
0.001
0.001
0.001
0.001
0.0
0.0
0.003
0.002
0.002
0.002
0.0
0.0
0.001
0.003
0.002
0.002
0.002
0.0
0.001
0.002
0.001
0.001
0.0
0.0
0.005
0.002
0.0
0.004
0.007
0.013000000000000001
0.023
0.027
0.027
0.034
0.03
0.035
0.039
0.04
0.044
0.047
0.045
0.051000000000000004
0.053
0.051000000000000004
0.05
0.051000000000000004
0.055
0.06
0.06
0.062
0.057
0.062
0.057
0.057
0.059000000000000004
0.061
0.058
0.058
0.055
0.059000000000000004
0.058
0.054
0.055
0.057
0.06
0.053
0.057
0.053
0.055
0.052000000000000005
0.044
0.048
0.052000000000000005
0.047
0.044
0.037
0.036000000000000004
0.034
0.03
0.029
0.024
0.025
0.027
0.026000000000000002
0.028
0.025
0.022
0.021
0.019
0.019
0.016
0.017
0.018000000000000002
0.013000000000000001
0.013000000000000001
0.012
0.01
0.009000000000000001
0.007
0.006
0.004
0.004
0.004
0.004
0.003
0.002
0.002
0.002
0.001
0.001
0.001
0.001
0.002
0.001
0.0
0.0
0.001
0.0
0.002
0.001
0.002
0.001
0.001
0.002
0.002
0.001
0.002
0.0
0.001
0.0
0.0
0.0
0.002
0.0
0.003
0.001
0.0
0.005
0.008
0.014
0.02
0.024
0.027
0.032
0.035
0.037
0.04
0.041
0.044
0.048
0.051000000000000004
0.055
0.059000000000000004
0.06
0.066
0.07100000000000001
0.073
0.076
0.077
0.082
0.08600000000000001
0.088
0.09
0.093
0.095
0.098
0.10300000000000001
0.106
0.11
0.11
0.113
0.117
0.11800000000000001
0.11900000000000001
0.12
0.121
0.122
0.124
0.124
0.126
0.126
0.128
0.126
0.13
0.13
0.131
0.129
0.131
0.129
0.128
0.129
0.131
0.133
0.133
0.133
0.132
0.131
0.129
0.128
0.128
0.128
0.123
0.124
0.122
0.122
0.121
0.121
0.11800000000000001
0.117
0.115
0.113
0.113
0.11
0.107
0.106
0.10300000000000001
0.1
0.099
0.097
0.095
0.093
0.092
0.092
0.089
0.085
0.081
0.075
0.079
0.079
0.077
0.076
0.078
0.077
0.074
0.075
0.077
0.073
0.073
0.07100000000000001
0.07
0.065
0.062
0.06
0.068
0.061
0.062
0.056
0.062
0.065
0.064
0.063
0.068
0.068
0.07
0.07
0.07100000000000001
0.075
0.07200000000000001
0.076
0.076
0.07200000000000001
0.07200000000000001
0.07100000000000001
0.068
0.075
0.10200000000000001
0.105
0.106
0.11800000000000001
0.111
0.12
0.12
0.126
0.127
0.134
0.131
0.138
0.136
0.14
0.14200000000000002
0.145
0.148
0.154
0.158
0.159
0.161
0.164
0.165
0.169
0.168
0.171
0.17500000000000002
0.177
0.179
0.181
0.184
0.186
0.188
0.188
0.188
0.189
0.187
0.187
0.187
0.188
0.189
0.189
0.186
0.18
0.177
0.171
0.17300000000000001
0.177
0.17300000000000001
0.176
0.176
0.17200000000000001
0.17
0.171
0.168
0.164
0.163
0.161
0.16
0.16
0.158
0.158
0.156
0.156
0.157
0.157
0.156
0.156
0.156
0.156
0.155
0.152
0.151
0.149
0.145
0.14300000000000002
0.139
0.138
0.135
0.131
0.13
0.128
0.128
0.126
0.128
0.127
0.126
0.126
0.123
0.125
0.122
0.122
0.122
0.122
0.123
0.122
0.123
0.123
0.122
0.121
0.123
0.124
0.129
0.127
0.129
0.129
0.131
0.133
0.133
0.132
0.132
0.131
0.131
0.13
0.131
0.133
0.135
0.137
0.135
0.136
0.14
0.14
0.14300000000000002
0.14300000000000002
0.147
0.148
0.151
0.153
0.156
0.159
0.159
0.165
0.169
0.171
0.17300000000000001
0.178
0.177
0.184
0.184
0.188
0.188
0.191
0.194
0.194
0.195
0.195
0.197
0.197
0.199
0.199
0.196
0.198
0.201
0.201
0.199
0.202
0.20500000000000002
0.201
0.202
0.201
0.2
0.199
0.20400000000000001
0.202
0.199
0.201
0.20500000000000002
0.203
0.20800000000000002
0.20700000000000002
0.20600000000000002
0.196
0.192
0.189
0.189
0.19
0.185
0.177
0.178
0.176
0.17500000000000002
0.167
0.161
0.151
0.148
0.146
0.148
0.14100000000000001
0.138
0.133
0.131
0.129
0.127
0.125
0.12
0.117
0.114
0.11
0.101
0.108
0.11
0.107
0.101
0.089
0.099
0.094
0.095
0.095
0.094
0.098
0.092
0.095
0.09
0.091
0.08700000000000001
0.089
0.092
0.093
0.095
0.096
0.096
0.1
0.10200000000000001
0.10300000000000001
0.10400000000000001
0.106
0.108
0.109
0.113
0.114
0.116
0.117
0.12
0.122
0.125
0.127
0.127
0.131
0.132
0.135
0.134
0.138
0.138
0.139
0.14100000000000001
0.14300000000000002
0.14400000000000002
0.147
0.147
0.149
0.151
0.154
0.155
0.155
0.158
0.159
0.159
0.161
0.163
0.163
0.164
0.164
0.167
0.169
0.169
0.169
0.17200000000000001
0.171
0.171
0.17
0.171
0.171
0.17300000000000001
0.17400000000000002
0.176
0.177
0.177
0.178
0.177
0.179
0.179
0.179
0.178
0.177
0.17500000000000002
0.17500000000000002
0.17500000000000002
0.17300000000000001
0.17300000000000001
0.17200000000000001
0.171
0.169
0.169
0.166
0.168
0.166
0.163
0.161
0.159
0.157
0.156
0.154
0.151
0.15
0.146
0.147
0.14200000000000002
0.14300000000000002
0.14300000000000002
0.146
0.146
0.145
0.14300000000000002
0.14200000000000002
0.14300000000000002
0.14
0.139
0.138
0.135
0.136
0.137
0.134
0.132
0.132
0.132
0.132
0.131
0.13
0.13
0.13
0.13
0.131
0.131
0.132
0.132
0.133
0.135
0.137
0.138
0.137
0.135
0.137
0.136
0.134
0.132
0.131
0.13
0.128
0.126
0.124
0.122
0.12
0.116
0.115
0.113
0.113
0.112
0.111
0.112
0.11
0.112
0.11
0.108
0.109
0.109
0.109
0.109
0.109
0.108
0.109
0.106
0.105
0.109
0.111
0.112
0.112
0.112
0.109
0.113
0.109
0.11
0.114
0.113
0.114
0.116
0.114
0.117
0.115
0.125
0.124
0.124
0.125
0.129
0.13
0.131
0.134
0.132
0.134
0.138
0.136
0.137
0.139
0.14400000000000002
0.14400000000000002
0.148
0.145
0.14200000000000002
0.147
0.152
0.149
0.156
0.154
0.157
0.158
0.153
0.151
0.155
0.157
0.161
0.171
0.169
0.169
0.17300000000000001
0.167
0.169
0.168
0.169
0.169
0.17
0.17200000000000001
0.17400000000000002
0.17400000000000002
0.179
0.182
0.184
0.186
0.184
0.185
0.186
0.185
0.185
0.183
0.182
0.183
0.186
0.184
0.17400000000000002
0.177
0.17500000000000002
0.176
0.181
0.183
0.184
0.185
0.185
0.183
0.182
0.183
0.182
0.182
0.181
0.179
0.179
0.177
0.177
0.17500000000000002
0.176
0.171
0.17
0.168
0.166
0.162
0.162
0.162
0.16
0.159
0.158
0.16
0.161
0.16
0.162
0.161
0.165
0.165
0.168
0.171
0.177
0.18
0.183
0.187
0.19
0.195
0.196
0.2
0.202
0.20500000000000002
0.211
0.214
0.217
0.22
0.223
0.225
0.231
0.233
0.23600000000000002
0.241
0.243
0.246
0.251
0.254
0.259
0.263
0.266
0.268
0.269
0.264
0.263
0.271
0.271
0.269
0.273
0.275
0.279
0.28500000000000003
0.28400000000000003
0.291
0.295
0.298
0.299
0.298
0.299
0.303
0.302
0.302
0.301
0.3
0.3
0.3
0.3
0.3
0.3
0.3
0.299
0.299
0.297
0.295
0.295
0.293
0.29
0.289
0.28800000000000003
0.28300000000000003
0.278
0.277
0.275
0.273
0.271
0.27
0.269
0.266
0.262
0.264
0.264
0.261
0.258
0.255
0.251
0.25
0.249
0.245
0.243
0.24
0.23900000000000002
0.233
0.23500000000000001
0.227
0.221
0.217
0.20700000000000002
0.198
0.198
0.192
0.193
0.189
0.187
0.184
0.184
0.17500000000000002
0.17500000000000002
0.17200000000000001
0.167
0.165
0.163
0.161
0.154
0.152
0.149
0.145
0.14
0.135
0.132
0.126
0.121
0.116
0.11800000000000001
0.114
0.117
0.114
0.111
0.1
0.10400000000000001
0.095
0.096
0.101
0.092
0.085
0.084
0.082
0.079
0.078
0.08
0.081
0.088
0.088
0.08600000000000001
0.08700000000000001
0.088
0.091
0.096
0.1
0.10300000000000001
0.106
0.105
0.106
0.106
0.105
0.101
0.10300000000000001
0.101
0.10200000000000001
0.10200000000000001
0.10200000000000001
0.10200000000000001
0.10300000000000001
0.105
0.106
0.11
0.11
0.11
0.113
0.115
0.117
0.117
0.115
0.11900000000000001
0.11800000000000001
0.117
0.116
0.116
0.116
0.116
0.117
0.11800000000000001
0.117
0.116
0.116
0.11
0.106
0.10200000000000001
0.098
0.095
0.093
0.08600000000000001
0.084
0.08
0.076
0.07200000000000001
0.068
0.066
0.064
0.063
0.062
0.06
0.059000000000000004
0.057
0.058
0.058
0.058
0.056
0.057
0.058
0.057
0.057
0.052000000000000005
0.052000000000000005
0.052000000000000005
0.05
0.053
0.052000000000000005
0.058
0.057
0.057
0.061
0.063
0.063
0.063
0.062
0.061
0.059000000000000004
0.058
0.058
0.056
0.053
0.05
0.047
0.043000000000000003
0.039
0.036000000000000004
0.035
0.032
0.031
0.028
0.027
0.026000000000000002
0.024
0.023
0.019
0.019
0.017
0.014
0.014
0.012
0.012
0.01
0.01
0.01
0.008
0.01
0.013000000000000001
0.012
0.012
0.012
0.011
0.009000000000000001
0.008
0.008
0.007
0.007
0.007
0.004
0.004
0.003
0.003
0.003
0.001
0.003
0.003
0.0
0.002
0.0
0.001
0.002
0.0
0.001
0.0
0.0
0.002
0.004
0.004
0.002
0.004
0.009000000000000001
0.011
0.014
0.014
0.014
0.015
0.017
0.019
0.019
0.017
0.019
0.023
0.022
0.021
0.023
0.014
0.012
0.013000000000000001
0.012
0.012
0.011
0.005
0.009000000000000001
0.007
0.007
0.007
0.006
0.004
0.004
0.009000000000000001
0.0
0.002
0.0
0.0
0.003
0.0
0.0
0.0
0.001
0.001
0.0
0.005
0.002
0.0
0.0
0.001
0.003
0.002
0.0
0.0
0.0
0.0
0.001
0.0
0.001
0.005
0.0
0.0
0.0
0.0
0.0
0.001
0.0
0.003
0.002
0.0
0.003
0.0
0.001
0.0
0.0
0.0
0.0
0.001
0.001
0.0
0.0
0.002
0.0
0.0
0.001
0.0
0.001
0.002
0.0
0.001
0.002
0.002
0.001
0.001
0.001
0.001
0.0
0.001
0.002
0.001
0.001
0.0
0.0
0.001
0.001
0.002
0.003
0.001
0.0
0.0
0.002
0.002
0.001
0.001
0.0
0.0
0.0
0.001
0.001
0.0
0.0
0.003
0.002
0.002
0.001
0.001
0.0
0.002
0.001
0.001
0.002
0.001
0.001
0.003
0.002
0.001
0.002
0.001
0.002
0.001
0.002
0.001
0.0
0.002
0.002
0.001
0.001
0.0
0.001
0.003
0.0
0.0
0.001
0.002
0.001
0.003
0.001
0.001
0.002
0.002
0.0
0.002
0.0
0.0
0.003
0.0
0.0
0.0
0.001
0.0
0.001
0.001
0.001
0.0
0.001
0.001
0.0
0.001
0.001
0.001
0.0
0.0
0.001
0.005
0.0
0.001
0.001
0.001
0.003
0.0
0.001
0.003
0.0
0.0
0.002
0.001
0.0
0.001
0.003
0.003
0.0
0.002
0.0
0.002
0.001
0.001
0.0
0.0
0.001
0.0
0.0
0.0
0.001
0.003
0.001
0.0
0.0
0.0
0.0
0.0
0.002
0.001
0.001
0.0
0.001
0.0
0.006
0.0
0.004
0.0
0.0
0.0
0.003
0.001
0.001
0.0
0.002
0.0
0.005
0.0
0.0
0.001
0.0
0.0
0.001
0.002
0.002
0.001
0.001
0.001
0.001
0.002
0.003
0.001
0.002
0.001
0.001
0.001
0.001
0.002
0.0
0.001
0.0
0.001
0.0
0.002
0.001
0.001
0.001
0.001
0.002
0.001
0.0
0.001
0.0
0.001
0.002
0.001
0.0
0.002
0.003
0.001
0.0
0.002
0.001
0.0
0.001
0.002
0.001
0.003
0.001
0.001
0.001
0.001
0.0
0.001
0.0
0.0
0.004
0.004
0.001
0.002
0.0
0.0
0.0
0.001
0.001
0.002
0.003
0.0
0.0
0.002
0.0
0.001
0.0
0.001
0.002
0.001
0.002
0.0
0.0
0.001
0.0
0.001
0.001
0.002
0.0
0.0
0.002
0.0
0.003
0.0
0.002
0.001
0.0
0.001
0.001
0.0
0.002
0.0
0.002
0.001
0.002
0.002
0.0
0.001
0.002
0.0
0.003
0.0
0.002
0.001
0.0
0.001
0.002
0.001
0.002
0.0
0.0
0.001
0.0
0.002
0.001
0.003
0.002
0.001
0.002
0.0
0.0
0.0
0.001
0.001
0.0
0.001
0.002
0.002
0.0
0.001
0.001
0.002
0.0
0.0
0.0
0.0
0.001
0.003
0.0
0.0
0.002
0.0
0.001
0.0
0.0
0.0
0.0
0.001
0.001
0.002
0.0
0.002
0.0
0.0
0.001
0.005
0.0
0.002
0.002
0.0
0.0
0.003
0.003
0.0
0.001
0.0
0.002
0.001
0.003
0.004
0.0
0.002
0.005
0.0
0.005
0.002
0.0
0.001
0.0
0.0
0.0
0.01
0.0
0.001
0.003
0.004
0.003
0.001
0.005
0.002
0.004
0.001
0.0
0.002
0.0
0.008
0.004
0.0
0.002
0.003
0.0
0.0
0.0
0.0
0.002
0.002
0.0
0.005
0.002
0.001
0.003
0.002
0.003
0.005
0.002
0.004
0.003
0.001
0.001
0.002
0.002
0.003
0.004
0.002
0.001
0.004
0.001
0.002
0.002
0.005
0.004
0.003
0.004
0.0
0.002
0.005
0.004
0.002
0.001
0.002
0.004
0.005
0.003
0.002
0.002
0.002
0.002
0.005
0.003
0.003
0.0
0.003
0.003
0.001
0.002
0.001
0.002
0.001
0.001
0.003
0.001
0.005
0.003
0.004
0.0
0.002
0.001
0.004
0.004
0.002
0.002
0.002
0.003
0.004
0.002
0.001
0.005
0.004
0.002
0.0
0.002
0.002
0.003
0.002
0.0
0.003
0.003
0.003
0.002
0.003
0.003
0.002
0.0
0.002
0.001
0.002
0.003
0.002
0.002
0.0
0.005
0.004
0.005
0.002
0.001
0.0
0.002
0.001
0.003
0.003
0.001
0.003
0.001
0.0
0.0
0.002
0.0
0.0
0.0
0.003
0.0
0.0
0.001
0.0
0.0
0.001
0.0
0.004
0.004
0.007
0.006
0.004
0.004
0.001
0.002
0.002
0.002
0.003
0.001
0.002
0.002
0.001
0.003
0.002
0.003
0.002
0.001
0.005
0.004
0.008
0.002
0.001
0.001
0.002
0.0
0.0
0.002
0.0
0.001
0.0
0.0
0.002
0.0
0.001
0.001
0.0
0.001
0.0
0.0
0.0
0.0
0.0
0.0
0.0
0.004
0.0
0.0
0.007
0.001
0.003
0.0
0.001
0.002
0.002
0.004
0.002
0.004
0.0
0.002
0.001
0.004
0.001
0.005
0.002
0.0
0.001
0.006
0.0
0.0
0.007
0.001
0.002
0.004
0.001
0.0
0.007
0.007
0.006
0.001
0.001
0.0
0.004
0.005
0.001
0.0
0.002
0.003
0.001
0.0
0.007
0.0
0.006
0.0
0.002
0.005
0.001
0.0
0.0
0.005
0.006
0.001
0.0
0.003
0.007
0.0
0.001
0.007
0.0
0.003
0.006
0.003
0.004
0.002
0.003
0.004
0.004
0.002
0.004
0.003
0.003
0.003
0.005
0.004
0.005
0.002
0.003
0.0
0.001
0.002
0.003
0.003
0.003
0.002
0.003
0.002
0.001
0.002
0.002
0.002
0.002
0.002
0.002
0.003
0.003
0.003
0.004
0.004
0.0
0.0
0.0
0.0
0.0
0.002
0.001
0.001
0.002
0.004
0.002
0.003
0.006
0.006
0.005
0.003
0.002
0.002
0.007
0.001
0.004
0.002
0.005
0.005
0.002
0.005
0.002
0.003
0.004
0.002
0.002
0.002
0.001
0.002
0.001
0.002
0.002
0.001
0.004
0.001
0.001
0.003
0.002
0.002
0.002
0.003
0.001
0.003
0.003
0.003
0.0
0.0
0.0
0.003
0.0
0.007
0.0
0.0
0.0
0.002
0.0
0.0
0.003
0.0
0.002
0.0
0.0
0.0
0.0
0.003
0.0
0.003
0.0
0.003
0.001
0.003
0.001
0.001
0.002
0.001
0.004
0.002
0.002
0.004
0.002
0.003
0.001
0.001
0.001
0.001
0.003
0.003
0.001
0.002
0.002
0.0
0.002
0.0
0.002
0.0
0.0
0.002
0.0
0.001
0.0
0.0
0.0
0.001
0.0
0.0
0.001
0.0
0.002
0.0
0.002
0.0
0.0
0.001
0.0
0.002
0.0
0.002
0.0
0.002
0.0
0.0
0.0
0.001
0.0
0.0
0.0
0.0
0.002
0.003
0.006
0.003
0.005
0.003
0.002
0.006
0.001
0.002
0.004
0.001
0.005
0.003
0.002
0.003
0.004
0.003
0.0
0.003
0.0
0.002
0.0
0.003
0.001
0.002
0.002
0.0
0.002
0.002
0.003
0.001
0.001
0.002
0.004
0.001
0.001
0.002
0.001
0.0
0.0
0.002
0.002
0.006
0.006
0.001
0.006
0.003
0.004
0.002
0.002
0.002
0.005
0.0
0.0
0.0
0.002
0.001
0.004
0.0
0.006
0.005
0.004
0.003
0.002
0.004
0.0
0.005
0.009000000000000001
0.003
0.0
0.0
0.001
0.004
0.002
0.003
0.002
0.005
0.003
0.005
0.006
0.003
0.002
0.003
0.0
0.006
0.004
0.002
0.002
0.0
0.0
0.004
0.008
0.0
0.0
0.002
0.001
0.002
0.001
0.0
0.0
0.0
0.001
0.005
0.0
0.0
0.001
0.0
0.0
0.006
0.005
0.004
0.002
0.0
0.002
0.005
0.002
0.003
0.003
0.001
0.002
0.004
0.004
0.004
0.005
0.001
0.003
0.002
0.002
0.001
0.002
0.005
0.002
0.003
0.002
0.003
0.002
0.001
0.002
0.003
0.003
0.002
0.002
0.004
0.002
0.001
0.002
0.002
0.002
0.001
0.002
0.005
0.002
0.001
0.003
0.003
0.004
0.004
0.003
0.002
0.004
0.002
0.003
0.004
0.004
0.004
0.004
0.005
0.004
0.005
0.002
0.001
0.003
0.002
0.004
0.004
0.001
0.004
0.004
0.002
0.003
0.002
0.002
0.001
0.002
0.002
0.002
0.001
0.002
0.002
0.002
0.001
0.004
0.003
0.0
0.005
0.004
0.01
0.023
0.035
0.044
0.039
0.041
0.041
0.038
0.039
0.036000000000000004
0.037
0.036000000000000004
0.032
0.031
0.029
0.025
0.025
0.024
0.02
0.022
0.017
0.015
0.012
0.011
0.01
0.006
0.006
0.005
0.004
0.007
0.003
0.004
0.003
0.0
0.0
0.003
0.0
0.002
0.003
0.001
0.002
0.003
0.002
0.005
0.01
0.019
0.023
0.028
0.034
0.028
0.023
0.024
0.021
0.019
0.018000000000000002
0.019
0.015
0.011
0.005
0.006
0.006
0.005
0.005
0.009000000000000001
0.009000000000000001
0.003
0.005
0.002
0.001
0.003
0.003
0.002
0.003
0.001
0.001
0.0
0.002
0.0
0.0
0.001
0.0
0.0
0.001
0.004
0.004
0.002
0.002
0.002
0.0
0.001
0.006
0.004
0.001
0.003
0.004
0.002
0.004
0.0
0.003
0.006
0.001
0.001
0.003
0.003
0.0
0.0
0.0
0.002
0.002
0.007
0.006
0.004
0.002
0.003
0.005
0.002
0.0
0.0
0.003
0.001
0.003
0.0
0.0
0.003
0.003
0.0
0.005
0.001
0.0
0.0
0.003
0.002
0.004
0.0
0.0
0.006
0.001
0.002
0.008
0.0
0.0
0.001
0.0
0.0
0.005
0.002
0.001
0.0
0.0
0.008
0.011
0.0
0.001
0.0
0.001
0.005
0.0
0.004
0.006
0.003
0.006
0.003
0.0
0.001
0.001
0.001
0.004
0.003
0.002
0.003
0.0
0.003
0.002
0.004
0.001
0.003
0.003
0.002
0.001
0.002
0.002
0.002
0.002
0.002
0.002
0.001
0.002
0.003
0.003
0.002
0.002
0.002
0.002
0.002
0.001
0.002
0.002
0.003
0.0
0.003
0.0
0.0
0.002
0.0
0.003
0.0
0.003
0.0
0.0
0.0
0.003
0.0
0.002
0.0
0.002
0.0
0.0
0.003
0.002
0.0
0.0
0.001
0.0
0.001
0.0
0.001
0.0
0.0
0.0
0.0
0.0
0.003
0.005
0.003
0.003
0.004
0.003
0.004
0.004
0.004
0.006
0.003
0.002
0.003
0.002
0.002
0.003
0.001
0.003
0.003
0.002
0.003
0.0
0.002
0.001
0.003
0.002
0.003
0.002
0.002
0.002
0.001
0.004
0.002
0.002
0.002
0.004
0.002
0.0
0.002
0.002
0.003
0.003
0.003
0.002
0.001
0.003
0.002
0.002
0.001
0.002
0.003
0.003
0.003
0.0
0.002
0.0
0.001
0.0
0.0
0.002
0.001
0.001
0.001
0.004
0.001
0.004
0.003
0.004
0.004
0.003
0.004
0.003
0.006
0.007
0.003
0.004
0.002
0.003
0.003
0.003
0.001
0.002
0.004
0.003
0.005
0.002
0.004
0.002
0.001
0.003
0.003
0.0
0.003
0.002
0.0
0.0
0.003
0.003
0.0
0.005
0.007
0.0
0.004
0.001
0.005
0.005
0.003
0.002
0.003
0.001
0.003
0.001
0.005
0.002
0.005
0.005
0.003
0.005
0.003
0.001
0.002
0.006
0.006
0.005
0.003
0.002
0.007
0.005
0.003
0.002
0.0
0.0
0.0
0.005
0.003
0.002
0.0
0.002
0.0
0.0
0.009000000000000001
0.0
0.002
0.0
0.001
0.005
0.004
0.009000000000000001
0.002
0.002
0.003
0.0
0.003
0.004
0.001
0.0
0.002
0.002
0.003
0.002
0.0
0.001
0.002
0.001
0.0
0.0
0.001
0.0
0.002
0.003
0.001
0.001
0.002
0.001
0.0
0.001
0.001
0.006
0.004
0.006
0.002
0.004
0.0
0.001
0.002
0.004
0.002
0.002
0.004
0.0
0.0
0.001
0.002
0.001
0.003
0.002
0.001
0.0
0.005
0.002
0.005
0.001
0.0
0.001
0.001
0.0
0.001
0.002
0.001
0.003
0.001
0.003
0.001
0.003
0.0
0.001
0.001
0.002
0.002
0.001
0.0
0.001
0.001
0.0
0.003
0.002
0.001
0.002
0.0
0.0
0.001
0.001
0.001
0.002
0.001
0.002
0.0
0.001
0.003
0.002
0.001
0.002
0.0
0.003
0.001
0.0
0.003
0.002
0.0
0.001
0.0
0.001
0.001
0.001
0.0
0.001
0.002
0.001
0.0
0.002
0.002
0.0
0.001
0.001
0.0
0.001
0.0
0.0
0.001
0.001
0.002
0.001
0.0
0.001
0.001
0.002
0.001
0.002
0.002
0.002
0.003
0.003
0.0
0.0
0.007
0.002
0.001
0.001
0.001
0.001
0.004
0.0
0.004
0.007
0.006
0.004
0.001
0.002
0.0
0.0
0.001
0.001
0.003
0.007
0.002
0.004
0.001
0.002
0.005
0.002
0.002
0.001
0.0
0.0
0.002
0.003
0.005
0.002
0.002
0.001
0.007
0.0
0.0
0.0
0.0
0.0
0.002
0.0
0.0
0.003
0.006
0.005
0.0
0.0
0.0
0.0
0.009000000000000001
0.008
0.005
0.0
0.0
0.002
0.005
0.002
0.006
0.004
0.003
0.0
0.001
0.002
0.001
0.004
0.0
0.001
0.0
0.001
0.002
0.003
0.0
0.002
0.0
0.0
0.002
0.002
0.001
0.002
0.0
0.0
0.002
0.0
0.001
0.002
0.0
0.001
0.0
0.004
0.002
0.0
0.001
0.001
0.0
0.004
0.001
0.0
0.002
0.002
0.001
0.001
0.002
0.004
0.0
0.001
0.001
0.001
0.002
0.003
0.002
0.002
0.011
0.022
0.028
0.03
0.032
0.037
0.04
0.041
0.047
0.047
0.05
0.052000000000000005
0.054
0.057
0.057
0.06
0.056
0.053
0.051000000000000004
0.049
0.048
0.048
0.049
0.053
0.055
0.057
0.061
0.061
0.063
0.064
0.065
0.064
0.066
0.069
0.068
0.068
0.07
0.07
0.07
0.07
0.07100000000000001
0.07
0.067
0.065
0.06
0.06
0.059000000000000004
0.052000000000000005
0.047
0.05
0.041
0.04
0.04
0.038
0.037
0.034
0.032
0.03
0.026000000000000002
0.024
0.027
0.024
0.023
0.022
0.023
0.022
0.021
0.019
0.019
0.019
0.016
0.015
0.017
0.017
0.017
0.015
0.013000000000000001
0.016
0.015
0.018000000000000002
0.015
0.018000000000000002
0.018000000000000002
0.018000000000000002
0.018000000000000002
0.023
0.023
0.03
0.033
0.03
0.031
0.03
0.034
0.037
0.046
0.052000000000000005
0.056
0.056
0.062
0.061
0.068
0.073
0.073
0.074
0.07100000000000001
0.078
0.073
0.073
0.07200000000000001
0.075
0.074
0.075
0.084
0.082
0.091
0.085
0.091
0.085
0.08700000000000001
0.089
0.093
0.105
0.117
0.122
0.114
0.122
0.126
0.132
0.128
0.129
0.135
0.132
0.14200000000000002
0.147
0.159
0.159
0.162
0.165
0.168
0.17200000000000001
0.171
0.17
0.167
0.165
0.162
0.159
0.156
0.155
0.154
0.15
0.151
0.15
0.147
0.146
0.147
0.14400000000000002
0.14200000000000002
0.147
0.14100000000000001
0.134
0.131
0.131
0.126
0.127
0.129
0.131
0.134
0.134
0.134
0.14
0.133
0.13
0.131
0.126
0.122
0.121
0.11900000000000001
0.121
0.116
0.116
0.114
0.114
0.117
0.12
0.115
0.117
0.116
0.121
0.117
0.11900000000000001
0.12
0.123
0.123
0.128
0.13
0.134
0.135
0.138
0.14
0.139
0.14100000000000001
0.14400000000000002
0.146
0.15
0.15
0.152
0.153
0.156
0.158
0.16
0.166
0.164
0.165
0.166
0.169
0.168
0.166
0.167
0.17
0.17
0.169
0.169
0.17300000000000001
0.17300000000000001
0.17400000000000002
0.18
0.179
0.181
0.185
0.19
0.194
0.199
0.203
0.20800000000000002
0.213
0.216
0.221
0.224
0.226
0.231
0.23700000000000002
0.24
0.242
0.243
0.245
0.251
0.252
0.255
0.258
0.259
0.259
0.259
0.258
0.258
0.262
0.262
0.265
0.268
0.272
0.273
0.274
0.275
0.275
0.276
0.281
0.28
0.28
0.28
0.278
0.278
0.275
0.276
0.279
0.273
0.267
0.265
0.263
0.262
0.256
0.256
0.251
0.254
0.254
0.254
0.252
0.248
0.249
0.248
0.241
0.241
0.23800000000000002
0.24
0.23
0.228
0.228
0.219
0.216
0.20800000000000002
0.20400000000000001
0.198
0.20600000000000002
0.201
0.2
0.20400000000000001
0.203
0.194
0.187
0.195
0.187
0.195
0.20400000000000001
0.191
0.202
0.211
0.199
0.218
0.22
0.227
0.227
0.233
0.233
0.241
0.24
0.246
0.243
0.246
0.249
0.252
0.256
0.257
0.257
0.256
0.257
0.257
0.257
0.26
0.26
0.264
0.264
0.268
0.27
0.272
0.274
0.279
0.274
0.273
0.276
0.277
0.278
0.281
0.28200000000000003
0.28300000000000003
0.28800000000000003
0.293
0.294
0.299
0.299
0.306
0.31
0.312
0.319
0.321
0.323
0.324
0.325
0.327
0.328
0.333
0.336
0.34
0.34600000000000003
0.34800000000000003
0.34900000000000003
0.352
0.354
0.357
0.36
0.36
0.359
0.355
0.36
0.362
0.361
0.363
0.358
0.363
0.356
0.358
0.355
0.36
0.357
0.352
0.363
0.356
0.357
0.358
0.358
0.355
0.356
0.34800000000000003
0.343
0.338
0.335
0.325
0.322
0.317
0.315
0.312
0.312
0.309
0.307
0.305
0.304
0.306
0.303
0.303
0.305
0.307
0.309
0.309
0.309
0.311
0.318
0.321
0.325
0.329
0.329
0.331
0.338
0.339
0.34
0.34600000000000003
0.34900000000000003
0.353
0.354
0.353
0.353
0.356
0.36
0.359
0.36
0.362
0.365
0.366
0.37
0.371
0.372
0.37
0.371
0.373
0.376
0.377
0.375
0.379
0.38
0.383
0.385
0.383
0.395
0.395
0.397
0.398
0.404
0.40800000000000003
0.41200000000000003
0.40900000000000003
0.41300000000000003
0.41000000000000003
0.41500000000000004
0.419
0.41500000000000004
0.418
0.41300000000000003
0.42
0.41500000000000004
0.419
0.424
0.43
0.437
0.441
0.441
0.443
0.446
0.443
0.447
0.457
0.461
0.455
0.47400000000000003
0.467
0.491
0.49
0.484
0.47800000000000004
0.47800000000000004
0.483
0.47800000000000004
0.47800000000000004
0.47300000000000003
0.47700000000000004
0.47800000000000004
0.467
0.464
0.46900000000000003
0.466
0.467
0.466
0.467
0.464
0.464
0.461
0.459
0.455
0.453
0.452
0.449
0.449
0.435
0.442
0.439
0.442
0.44
0.442
0.451
0.449
0.451
0.451
0.452
0.452
0.454
0.453
0.449
0.449
0.448
0.446
0.445
0.443
0.443
0.443
0.441
0.442
0.439
0.441
0.444
0.446
0.447
0.452
0.451
0.453
0.455
0.456
0.457
0.459
0.459
0.461
0.463
0.462
0.465
0.466
0.468
0.47100000000000003
0.47000000000000003
0.47300000000000003
0.47300000000000003
0.47500000000000003
0.48
0.483
0.484
0.484
0.487
0.486
0.487
0.489
0.49
0.493
0.495
0.497
0.498
0.501
0.498
0.503
0.505
0.511
0.514
0.514
0.515
0.519
0.521
0.527
0.528
0.529
0.532
0.532
0.533
0.534
0.537
0.538
0.543
0.547
0.551
0.559
0.5630000000000001
0.5680000000000001
0.5740000000000001
0.5740000000000001
0.58
0.584
0.58
0.586
0.589
0.592
0.593
0.594
0.593
0.59
0.59
0.587
0.588
0.588
0.585
0.588
0.588
0.592
0.591
0.595
0.598
0.602
0.603
0.606
0.607
0.606
0.607
0.606
0.607
0.606
0.605
0.603
0.602
0.604
0.602
0.601
0.6
0.602
0.597
0.595
0.599
0.598
0.593
0.592
0.593
0.592
0.591
0.587
0.587
0.582
0.582
0.5750000000000001
0.5720000000000001
0.5690000000000001
0.5680000000000001
0.559
0.556
0.553
0.551
0.548
0.549
0.545
0.547
0.543
0.543
0.544
0.543
0.543
0.547
0.543
0.54
0.537
0.533
0.532
0.533
0.527
0.529
0.527
0.535
0.535
0.538
0.535
0.535
0.536
0.531
0.53
0.533
0.529
0.531
0.533
0.526
0.531
0.524
0.529
0.536
0.538
0.539
0.544
0.553
0.547
0.552
0.551
0.56
0.558
0.551
0.553
0.547
0.5740000000000001
0.587
0.583
0.583
0.587
0.589
0.594
0.595
0.596
0.601
0.6
0.603
0.603
0.607
0.613
0.605
0.615
0.616
0.625
0.634
0.636
0.643
0.652
0.655
0.657
0.663
0.669
0.672
0.677
0.68
0.682
0.684
0.684
0.683
0.684
0.686
0.6890000000000001
0.6920000000000001
0.6960000000000001
0.6960000000000001
0.6970000000000001
0.6980000000000001
0.6970000000000001
0.6980000000000001
0.6980000000000001
0.6970000000000001
0.6960000000000001
0.6970000000000001
0.6930000000000001
0.6900000000000001
0.6890000000000001
0.685
0.685
0.679
0.675
0.671
0.667
0.664
0.662
0.659
0.658
0.656
0.654
0.651
0.649
0.646
0.646
0.641
0.639
0.635
0.632
0.629
0.628
0.628
0.624
0.621
0.618
0.617
0.614
0.611
0.611
0.603
0.599
0.596
0.601
0.603
0.606
0.607
0.607
0.609
0.613
0.61
0.607
0.607
0.61
0.611
0.612
0.611
0.621
0.623
0.623
0.628
0.629
0.63
0.633
0.635
0.635
0.638
0.644
0.645
0.651
0.653
0.658
0.66
0.662
0.66
0.661
0.665
0.666
0.67
0.671
0.673
0.673
0.675
0.68
0.68
0.685
0.6880000000000001
0.6890000000000001
0.6900000000000001
0.6960000000000001
0.6980000000000001
0.6970000000000001
0.7000000000000001
0.7020000000000001
0.7000000000000001
0.71
0.715
0.721
0.727
0.727
0.729
0.734
0.734
0.737
0.74
0.745
0.745
0.747
0.75
0.749
0.749
0.751
0.75
0.754
0.757
0.759
0.762
0.769
0.774
0.781
0.783
0.789
0.791
0.796
0.799
0.805
0.804
0.799
0.798
0.794
0.794
0.787
0.787
0.783
0.778
0.777
0.762
0.757
0.752
0.749
0.743
0.748
0.744
0.729
0.727
0.72
0.719
0.705
0.71
0.7030000000000001
0.6970000000000001
0.6970000000000001
0.6980000000000001
0.7010000000000001
0.6970000000000001
0.6950000000000001
0.6970000000000001
0.6920000000000001
0.6910000000000001
0.6920000000000001
0.687
0.6940000000000001
0.6900000000000001
0.6890000000000001
0.6920000000000001
0.6960000000000001
0.6960000000000001
0.7030000000000001
0.707
0.713
0.715
0.714
0.715
0.712
0.716
0.715
0.716
0.718
0.718
0.718
0.719
0.717
0.721
0.724
0.724
0.727
0.727
0.731
0.734
0.736
0.734
0.739
0.741
0.744
0.747
0.751
0.753
0.759
0.761
0.765
0.769
0.775
0.779
0.781
0.785
0.79
0.794
0.797
0.799
0.804
0.808
0.8130000000000001
0.8190000000000001
0.8250000000000001
0.8300000000000001
0.836
0.841
0.845
0.852
0.853
0.855
0.857
0.86
0.859
0.859
0.853
0.858
0.86
0.863
0.867
0.87
0.877
0.879
0.878
0.878
0.879
0.88
0.883
0.883
0.884
0.884
0.885
0.883
0.883
0.885
0.884
0.881
0.878
0.873
0.869
0.863
0.86
0.852
0.849
0.846
0.843
0.839
0.836
0.833
0.8290000000000001
0.8260000000000001
0.8190000000000001
0.8140000000000001
0.809
0.808
0.796
0.786
0.782
0.78
0.774
0.763
0.767
0.761
0.76
0.751
0.749
0.75
0.754
0.753
0.752
0.755
0.751
0.751
0.749
0.752
0.754
0.759
0.76
0.763
0.765
0.766
0.771
0.774
0.775
0.776
0.775
0.772
0.773
0.778
0.783
0.786
0.787
0.79
0.794
0.791
0.799
0.798
0.801
0.806
0.808
0.809
0.8170000000000001
0.8240000000000001
0.8210000000000001
0.8280000000000001
0.8290000000000001
0.836
0.846
0.851
0.855
0.86
0.873
0.871
0.879
0.888
0.897
0.892
0.906
0.899
0.902
0.92
0.9490000000000001
0.9550000000000001
0.9550000000000001
0.9530000000000001
0.9510000000000001
0.9510000000000001
0.9490000000000001
0.9470000000000001
0.9530000000000001
0.968
0.967
0.978
0.975
0.98
0.984
0.983
0.984
0.984
0.983
0.983
0.975
0.977
0.974
0.974
0.972
0.968
0.967
0.964
0.961
0.9540000000000001
0.9510000000000001
0.9480000000000001
0.9430000000000001
0.9430000000000001
0.937
0.931
0.928
0.921
0.921
0.917
0.914
0.911
0.908
0.906
0.904
0.897
0.892
0.887
0.882
0.876
0.871
0.867
0.861
0.859
0.855
0.851
0.846
0.844
0.846
0.841
0.838
0.836
0.837
0.837
0.833
0.8310000000000001
0.8280000000000001
0.8310000000000001
0.835
0.842
0.847
0.851
0.857
0.855
0.854
0.856
0.857
0.862
0.861
0.864
0.868
0.871
0.872
0.873
0.873
0.876
0.881
0.881
0.882
0.882
0.885
0.884
0.889
0.892
0.894
0.897
0.903
0.906
0.91
0.913
0.921
0.925
0.933
0.931
0.935
0.9410000000000001
0.9500000000000001
0.9540000000000001
0.9590000000000001
0.96
0.965
0.968
0.975
0.984
0.988
0.996
0.999
1.0030000000000001
1.0050000000000001
1.0110000000000001
1.012
1.014
1.0150000000000001
1.018
1.0150000000000001
1.0150000000000001
1.014
1.0130000000000001
1.0090000000000001
1.0110000000000001
1.0130000000000001
1.018
1.024
1.027
1.031
1.032
1.033
1.034
1.035
1.039
1.033
1.033
1.035
1.03
1.03
1.028
1.035
1.031
1.03
1.024
1.018
1.012
1.0050000000000001
1.004
0.998
0.996
0.99
0.982
0.983
0.973
0.969
0.972
0.96
0.9540000000000001
0.9510000000000001
0.9450000000000001
0.9430000000000001
0.937
0.93
0.926
0.915
0.914
0.909
0.898
0.897
0.896
0.891
0.889
0.889
0.889
0.887
0.891
0.894
0.89
0.885
0.884
0.883
0.886
0.89
0.892
0.893
0.896
0.895
0.903
0.903
0.907
0.902
0.903
0.903
0.907
0.91
0.909
0.911
0.921
0.928
0.927
0.925
0.935
0.9380000000000001
0.9400000000000001
0.9430000000000001
0.9510000000000001
0.9550000000000001
0.962
0.966
0.967
0.968
0.971
0.971
0.973
0.977
0.983
0.983
0.991
0.997
1.002
1.004
1.0090000000000001
1.0150000000000001
1.0210000000000001
1.031
1.034
1.035
1.038
1.035
1.041
1.038
1.041
1.042
1.043
1.046
1.051
1.059
1.06
1.065
1.067
1.069
1.066
1.069
1.068
1.069
1.067
1.067
1.065
1.062
1.06
1.058
1.057
1.055
1.055
1.053
1.05
1.048
1.043
1.037
1.031
1.025
1.0230000000000001
1.016
1.012
1.006
0.998
0.995
0.991
0.988
0.985
0.975
0.973
0.969
0.963
0.9590000000000001
0.9560000000000001
0.9520000000000001
0.9490000000000001
0.9420000000000001
0.9390000000000001
0.933
0.929
0.93
0.927
0.927
0.927
0.927
0.925
0.924
0.922
0.918
0.918
0.919
0.916
0.915
0.918
0.921
0.924
0.927
0.93
0.929
0.9410000000000001
0.935
0.937
0.9450000000000001
0.9510000000000001
0.9550000000000001
0.9550000000000001
0.9530000000000001
0.9550000000000001
0.9580000000000001
0.961
0.963
0.961
0.965
0.967
0.967
0.966
0.968
0.971
0.97
0.972
0.971
0.978
0.978
0.975
0.978
0.982
0.986
0.995
0.997
0.995
1.0
1.0050000000000001
1.0110000000000001
1.0150000000000001
1.016
1.0190000000000001
1.022
1.025
1.029
1.031
1.037
1.043
1.041
1.045
1.048
1.05
1.053
1.055
1.055
1.061
1.057
1.06
1.057
1.055
1.056
1.055
1.061
1.063
1.068
1.07
1.068
1.069
1.075
1.077
1.079
1.082
1.084
1.081
1.081
1.085
1.078
1.083
1.076
1.078
1.072
1.071
1.065
1.058
1.053
1.051
1.047
1.037
1.035
1.026
1.02
1.018
1.016
1.012
1.008
1.002
0.995
0.991
0.981
0.976
0.965
0.963
0.9520000000000001
0.9510000000000001
0.9520000000000001
0.9510000000000001
0.9430000000000001
0.9460000000000001
0.9460000000000001
0.9430000000000001
0.936
0.933
0.926
0.918
0.92
0.931
0.924
0.935
0.9390000000000001
0.9440000000000001
0.9430000000000001
0.9440000000000001
0.9510000000000001
0.9530000000000001
0.9540000000000001
0.9590000000000001
0.963
0.963
0.964
0.968
0.964
0.969
0.974
0.972
0.972
0.979
0.979
0.98
0.983
0.985
0.987
0.988
0.996
0.994
0.996
0.996
0.998
1.002
1.0030000000000001
1.0010000000000001
1.0030000000000001
1.0050000000000001
1.0070000000000001
1.0090000000000001
1.012
1.014
1.0150000000000001
1.02
1.018
1.025
1.026
1.029
1.029
1.036
1.038
1.038
1.043
1.044
1.047
1.051
1.051
1.055
1.055
1.057
1.059
1.058
1.059
1.057
1.055
1.058
1.055
1.056
1.056
1.058
1.062
1.063
1.068
1.07
1.075
1.076
1.079
1.081
1.082
1.082
1.085
1.083
1.083
1.085
1.081
1.081
1.081
1.076
1.076
1.074
1.074
1.075
1.073
1.07
1.07
1.069
1.067
1.066
1.063
1.062
1.06
1.059
1.053
1.051
1.048
1.042
1.037
1.033
1.03
1.0230000000000001
1.018
1.014
1.008
1.004
0.999
0.996
0.991
0.989
0.984
0.984
0.981
0.977
0.973
0.972
0.968
0.963
0.962
0.964
0.9590000000000001
0.9570000000000001
0.9590000000000001
0.9570000000000001
0.9530000000000001
0.9540000000000001
0.9510000000000001
0.9500000000000001
0.9510000000000001
0.9530000000000001
0.9500000000000001
0.9480000000000001
0.9410000000000001
0.9470000000000001
0.9500000000000001
0.9480000000000001
0.9480000000000001
0.9490000000000001
0.9530000000000001
0.9560000000000001
0.9510000000000001
0.962
0.969
0.962
0.968
0.973
0.975
0.978
0.977
0.977
0.978
0.976
0.979
0.981
0.982
0.987
0.993
0.995
0.993
0.996
0.998
1.0010000000000001
1.0
1.0010000000000001
0.998
1.0030000000000001
1.0030000000000001
1.002
1.002
1.004
1.0070000000000001
1.01
1.0130000000000001
1.0170000000000001
1.018
1.0230000000000001
1.027
1.024
1.033
1.032
1.039
1.042
1.042
1.049
1.05
1.052
1.052
1.053
1.052
1.055
1.055
1.065
1.064
1.066
1.075
1.075
1.074
1.076
1.077
1.085
1.085
1.087
1.089
1.087
1.092
1.09
1.087
1.087
1.093
1.091
1.095
1.093
1.097
1.104
1.107
1.114
1.115
1.115
1.118
1.11
1.105
1.111
1.118
1.116
1.107
1.097
1.089
1.085
1.086
1.079
1.081
1.081
1.077
1.069
1.081
1.079
1.076
1.074
1.077
1.068
1.07
1.063
1.058
1.054
1.053
1.049
1.046
1.042
1.037
1.033
1.028
1.025
1.0190000000000001
1.0150000000000001
1.0110000000000001
1.0050000000000001
1.0010000000000001
1.0
0.995
0.991
0.988
0.985
0.983
0.982
0.98
0.978
0.977
0.975
0.972
0.974
0.969
0.972
0.972
0.973
0.975
0.974
0.975
0.976
0.979
0.981
0.983
0.987
0.99
0.991
0.994
0.995
0.998
0.999
0.998
0.999
0.999
1.0050000000000001
1.008
1.0110000000000001
1.0090000000000001
1.012
1.0130000000000001
1.0170000000000001
1.02
1.022
1.027
1.027
1.028
1.031
1.031
1.033
1.034
1.033
1.037
1.034
1.035
1.039
1.045
1.044
1.042
1.045
1.05
1.053
1.055
1.06
1.063
1.065
1.068
1.068
1.073
1.074
1.076
1.079
1.083
1.085
1.087
1.091
1.095
1.1
1.103
1.106
1.111
1.114
1.118
1.118
1.123
1.125
1.133
1.133
1.135
1.135
1.137
1.137
1.1400000000000001
1.139
1.139
1.1360000000000001
1.135
1.135
1.137
1.1400000000000001
1.143
1.149
1.151
1.155
1.155
1.156
1.159
1.159
1.16
1.16
1.161
1.161
1.162
1.159
1.161
1.159
1.16
1.157
1.155
1.153
1.153
1.147
1.149
1.1460000000000001
1.145
1.1440000000000001
1.143
1.143
1.1360000000000001
1.1340000000000001
1.131
1.127
1.123
1.119
1.116
1.112
1.107
1.105
1.099
1.094
1.091
1.085
1.079
1.079
1.075
1.068
1.063
1.061
1.057
1.054
1.051
1.047
1.043
1.039
1.034
1.031
1.031
1.03
1.031
1.027
1.0210000000000001
1.018
1.0170000000000001
1.0190000000000001
1.0010000000000001
1.0070000000000001
1.004
1.0050000000000001
1.0050000000000001
1.0030000000000001
1.004
1.0030000000000001
1.002
1.0010000000000001
1.002
1.0050000000000001
1.0070000000000001
1.0110000000000001
1.012
1.0090000000000001
1.018
1.0110000000000001
1.0150000000000001
1.0170000000000001
1.022
1.022
1.028
1.028
1.036
1.04
1.035
1.047
1.053
1.055
1.052
1.057
1.058
1.059
1.055
1.059
1.062
1.062
1.065
1.065
1.077
1.064
1.068
1.066
1.069
1.074
1.094
1.105
1.1
1.101
1.098
1.104
1.104
1.111
1.116
1.114
1.127
1.1340000000000001
1.1440000000000001
1.145
1.154
1.154
1.165
1.164
1.169
1.173
1.179
1.182
1.183
1.188
1.188
1.189
1.188
1.19
1.189
1.193
1.194
1.192
1.193
1.191
1.194
1.195
1.191
1.198
1.191
1.195
1.193
1.187
1.189
1.193
1.187
1.185
1.185
1.187
1.184
1.183
1.183
1.179
1.174
1.171
1.166
1.161
1.158
1.156
1.149
1.147
1.143
1.1380000000000001
1.135
1.1340000000000001
1.1280000000000001
1.127
1.119
1.119
1.115
1.109
1.106
1.101
1.095
1.091
1.086
1.081
1.078
1.073
1.071
1.066
1.062
1.058
1.055
1.055
1.051
1.045
1.048
1.045
1.042
1.041
1.042
1.038
1.037
1.036
1.034
1.03
1.03
1.027
1.027
1.03
1.027
1.027
1.028
1.027
1.031
1.03
1.033
1.037
1.038
1.041
1.044
1.046
1.049
1.05
1.052
1.051
1.052
1.055
1.055
1.057
1.059
1.06
1.063
1.064
1.065
1.07
1.067
1.067
1.069
1.07
1.073
1.074
1.078
1.079
1.081
1.085
1.09
1.093
1.097
1.098
1.102
1.105
1.106
1.11
1.111
1.115
1.119
1.12
1.1260000000000001
1.1260000000000001
1.1280000000000001
1.1340000000000001
1.135
1.1380000000000001
1.1440000000000001
1.141
1.143
1.145
1.149
1.1500000000000001
1.151
1.157
1.159
1.159
1.161
1.167
1.167
1.17
1.173
1.179
1.179
1.179
1.183
1.183
1.183
1.185
1.189
1.186
1.19
1.188
1.187
1.189
1.188
1.199
1.194
1.201
1.207
1.21
1.215
1.216
1.22
1.217
1.224
1.223
1.221
1.224
1.223
1.218
1.22
1.219
1.222
1.223
1.219
1.22
1.218
1.217
1.218
1.207
1.203
1.189
1.185
1.181
1.177
1.173
1.167
1.163
1.159
1.154
1.156
1.143
1.141
1.135
1.1300000000000001
1.122
1.111
1.115
1.108
1.101
1.095
1.093
1.077
1.075
1.066
1.067
1.057
1.053
1.046
1.049
1.046
1.05
1.047
1.055
1.051
1.055
1.052
1.056
1.058
1.06
1.069
1.074
1.076
1.078
1.077
1.082
1.082
1.085
1.089
1.089
1.094
1.093
1.091
1.095
1.099
1.097
1.099
1.099
1.101
1.105
1.101
1.103
1.103
1.105
1.105
1.101
1.105
1.103
1.104
1.102
1.102
1.105
1.111
1.115
1.12
1.123
1.127
1.133
1.135
1.1360000000000001
1.143
1.143
1.145
1.149
1.1520000000000001
1.155
1.157
1.159
1.161
1.164
1.166
1.167
1.171
1.176
1.179
1.183
1.187
1.191
1.198
1.201
1.204
1.208
1.209
1.212
1.212
1.214
1.215
1.215
1.219
1.217
1.219
1.218
1.22
1.219
1.221
1.223
1.223
1.228
1.229
1.229
1.231
1.23
1.23
1.23
1.227
1.228
1.228
1.227
1.227
1.224
1.225
1.221
1.222
1.221
1.222
1.221
1.218
1.218
1.215
1.211
1.21
1.203
1.203
1.201
1.204
1.203
1.197
1.195
1.197
1.191
1.191
1.188
1.182
1.181
1.177
1.17
1.17
1.162
1.158
1.155
1.151
1.145
1.143
1.137
1.131
1.129
1.127
1.121
1.118
1.113
1.111
1.109
1.107
1.105
1.101
1.101
1.098
1.094
1.096
1.089
1.089
1.089
1.087
1.087
1.089
1.087
1.086
1.085
1.087
1.085
1.087
1.087
1.089
1.091
1.091
1.091
1.092
1.094
1.098
1.095
1.095
1.097
1.098
1.099
1.098
1.1
1.099
1.103
1.097
1.103
1.1
1.101
1.102
1.112
1.11
1.115
1.117
1.123
1.121
1.1300000000000001
1.129
1.1280000000000001
1.127
1.141
1.135
1.1400000000000001
1.143
1.1460000000000001
1.1400000000000001
1.1520000000000001
1.16
1.164
1.17
1.169
1.173
1.179
1.177
1.183
1.175
1.18
1.181
1.179
1.193
1.187
1.193
1.198
1.213
1.214
1.219
1.232
1.23
1.243
1.245
1.249
1.254
1.246
1.249
1.252
1.246
1.245
1.2570000000000001
1.2570000000000001
1.266
1.2710000000000001
1.266
1.2650000000000001
1.258
1.2590000000000001
1.2570000000000001
1.256
1.2550000000000001
1.256
1.239
1.247
1.245
1.245
1.242
1.239
1.235
1.234
1.235
1.227
1.227
1.222
1.225
1.22
1.213
1.209
1.211
1.203
1.201
1.198
1.199
1.195
1.19
1.187
1.185
1.177
1.177
1.171
1.171
1.164
1.16
1.157
1.1520000000000001
1.1460000000000001
1.139
1.133
1.1280000000000001
1.125
1.125
1.122
1.121
1.115
1.113
1.113
1.109
1.106
1.103
1.099
1.101
1.097
1.095
1.095
1.093
1.095
1.095
1.094
1.097
1.098
1.1
1.103
1.105
1.109
1.109
1.113
1.111
1.115
1.119
1.119
1.12
1.123
1.127
1.129
1.133
1.1380000000000001
1.139
1.141
1.141
1.141
1.143
1.145
1.147
1.153
1.151
1.153
1.151
1.151
1.151
1.155
1.155
1.159
1.161
1.163
1.162
1.165
1.169
1.171
1.174
1.173
1.181
1.181
1.183
1.182
1.187
1.194
1.199
1.207
1.215
1.215
1.221
1.224
1.226
1.23
1.231
1.234
1.238
1.244
1.245
1.249
1.254
1.258
1.2610000000000001
1.2630000000000001
1.2670000000000001
1.27
1.2730000000000001
1.2730000000000001
1.276
1.2790000000000001
1.2750000000000001
1.2770000000000001
1.278
1.276
1.278
1.2750000000000001
1.2730000000000001
1.2750000000000001
1.278
1.281
1.283
1.285
1.289
1.29
1.294
1.295
1.297
1.295
1.298
1.297
1.295
1.291
1.293
1.291
1.288
1.292
1.289
1.287
1.284
1.283
1.285
1.284
1.278
1.276
1.2710000000000001
1.2670000000000001
1.26
1.2550000000000001
1.254
1.25
1.247
1.243
1.24
1.239
1.233
1.23
1.227
1.223
1.216
1.21
1.207
1.194
1.195
1.19
1.187
1.184
1.176
1.175
1.169
1.163
1.158
1.156
1.151
1.149
1.1480000000000001
1.151
1.147
1.1500000000000001
1.1480000000000001
1.1480000000000001
1.141
1.131
1.131
1.137
1.1300000000000001
1.131
1.135
1.1320000000000001
1.127
1.123
1.135
1.1320000000000001
1.133
1.1400000000000001
1.143
1.1460000000000001
1.1420000000000001
1.149
1.1500000000000001
1.145
1.145
1.165
1.162
1.157
1.166
1.164
1.169
1.165
1.162
1.171
1.181
1.179
1.178
1.179
1.177
1.187
1.186
1.196
1.199
1.202
1.213
1.214
1.215
1.218
1.215
1.222
1.221
1.223
1.23
1.231
1.235
1.241
1.245
1.247
1.248
1.2530000000000001
1.2550000000000001
1.254
1.2610000000000001
1.266
1.2710000000000001
1.2750000000000001
1.2770000000000001
1.281
1.283
1.285
1.287
1.29
1.289
1.291
1.289
1.286
1.287
1.287
1.285
1.287
1.288
1.29
1.294
1.295
1.298
1.302
1.303
1.303
1.301
1.302
1.304
1.304
1.303
1.303
1.302
1.305
1.299
1.297
1.296
1.295
1.293
1.29
1.287
1.288
1.287
1.285
1.282
1.2770000000000001
1.268
1.2650000000000001
1.2650000000000001
1.258
1.2570000000000001
1.2510000000000001
1.249
1.241
1.246
1.243
1.239
1.235
1.225
1.225
1.221
1.218
1.217
1.213
1.21
1.203
1.197
1.196
1.193
1.187
1.182
1.176
1.171
1.166
1.162
1.158
1.157
1.151
1.147
1.145
1.1420000000000001
1.1400000000000001
1.135
1.133
1.131
1.129
1.1300000000000001
1.1260000000000001
1.1260000000000001
1.127
1.125
1.123
1.123
1.125
1.122
1.124
1.1260000000000001
1.129
1.1300000000000001
1.135
1.137
1.1380000000000001
1.141
1.139
1.139
1.1440000000000001
1.1460000000000001
1.153
1.157
1.16
1.162
1.163
1.167
1.165
1.165
1.17
1.168
1.17
1.171
1.171
1.174
1.173
1.174
1.176
1.18
1.181
1.182
1.186
1.186
1.19
1.191
1.192
1.194
1.198
1.199
1.204
1.207
1.209
1.214
1.215
1.215
1.218
1.224
1.226
1.225
1.227
1.227
1.231
1.239
1.243
1.249
1.254
1.2570000000000001
1.2570000000000001
1.2670000000000001
1.27
1.2670000000000001
1.2750000000000001
1.274
1.2730000000000001
1.2790000000000001
1.28
1.2770000000000001
1.276
1.287
1.286
1.291
1.287
1.292
1.291
1.291
1.294
1.298
1.303
1.305
1.31
1.316
1.31
1.311
1.321
1.319
1.319
1.314
1.311
1.32
1.305
1.31
1.311
1.303
1.303
1.299
1.291
1.283
1.2790000000000001
1.281
1.2690000000000001
1.27
1.258
1.256
1.246
1.23
1.224
1.219
1.214
1.207
1.2
1.197
1.189
1.182
1.181
1.171
1.169
1.169
1.167
1.159
1.161
1.159
1.154
1.155
1.153
1.155
1.151
1.149
1.145
1.137
1.137
1.131
1.135
1.1340000000000001
1.131
1.129
1.127
1.1260000000000001
1.125
1.125
1.129
1.129
1.131
1.1340000000000001
1.135
1.135
1.139
1.1400000000000001
1.1440000000000001
1.145
1.145
1.149
1.1500000000000001
1.151
1.153
1.151
1.154
1.154
1.156
1.161
1.165
1.166
1.169
1.17
1.171
1.174
1.172
1.175
1.171
1.175
1.173
1.176
1.179
1.182
1.183
1.187
1.187
1.189
1.193
1.196
1.199
1.203
1.206
1.209
1.215
1.215
1.22
1.221
1.225
1.23
1.237
1.239
1.239
1.237
1.246
1.254
1.2550000000000001
1.2650000000000001
1.2670000000000001
1.2730000000000001
1.278
1.281
1.284
1.287
1.288
1.29
1.291
1.291
1.291
1.292
1.293
1.29
1.29
1.283
1.288
1.286
1.292
1.294
1.292
1.297
1.301
1.303
1.306
1.307
1.308
1.305
1.304
1.304
1.303
1.302
1.3
1.297
1.296
1.295
1.293
1.293
1.291
1.29
1.289
1.287
1.287
1.284
1.281
1.2790000000000001
1.2750000000000001
1.2770000000000001
1.274
1.2710000000000001
1.27
1.266
1.262
1.2550000000000001
1.25
1.246
1.241
1.237
1.231
1.228
1.222
1.219
1.215
1.209
1.203
1.199
1.193
1.189
1.187
1.18
1.176
1.174
1.169
1.165
1.161
1.157
1.1520000000000001
1.153
1.1480000000000001
1.1460000000000001
1.1420000000000001
1.141
1.1380000000000001
1.135
1.135
1.1340000000000001
1.133
1.1340000000000001
1.1320000000000001
1.129
1.1300000000000001
1.129
1.129
1.127
1.123
1.123
1.1260000000000001
1.1300000000000001
1.1300000000000001
1.133
1.135
1.133
1.1380000000000001
1.135
1.143
1.1440000000000001
1.145
1.149
1.147
1.154
1.156
1.157
1.159
1.159
1.167
1.166
1.167
1.165
1.163
1.17
1.167
1.163
1.162
1.17
1.174
1.173
1.182
1.187
1.187
1.195
1.193
1.201
1.199
1.203
1.205
1.209
1.205
1.21
1.211
1.217
1.22
1.222
1.225
1.226
1.233
1.239
1.238
1.239
1.244
1.249
1.256
1.2730000000000001
1.286
1.2770000000000001
1.274
1.2710000000000001
1.2690000000000001
1.274
1.278
1.2770000000000001
1.285
1.284
1.292
1.292
1.295
1.3
1.301
1.305
1.303
1.304
1.303
1.306
1.303
1.305
1.301
1.3
1.296
1.294
1.291
1.287
1.284
1.278
1.278
1.274
1.2690000000000001
1.2650000000000001
1.2610000000000001
1.256
1.252
1.2530000000000001
1.249
1.243
1.238
1.234
1.228
1.222
1.22
1.214
1.21
1.204
1.199
1.196
1.191
1.187
1.183
1.179
1.173
1.169
1.169
1.165
1.162
1.155
1.153
1.1480000000000001
1.1460000000000001
1.143
1.1400000000000001
1.137
1.1340000000000001
1.1320000000000001
1.129
1.129
1.127
1.124
1.122
1.119
1.116
1.117
1.116
1.115
1.115
1.115
1.117
1.115
1.117
1.117
1.118
1.12
1.119
1.127
1.127
1.127
1.131
1.131
1.1320000000000001
1.133
1.1360000000000001
1.139
1.141
1.141
1.143
1.145
1.145
1.147
1.1480000000000001
1.1480000000000001
1.1500000000000001
1.151
1.153
1.153
1.153
1.153
1.155
1.158
1.159
1.162
1.162
1.163
1.168
1.171
1.173
1.176
1.176
1.179
1.179
1.183
1.186
1.188
1.189
1.191
1.194
1.195
1.199
1.204
1.207
1.21
1.214
1.217
1.223
1.227
1.23
1.237
1.24
1.246
1.25
1.2510000000000001
1.2550000000000001
1.2610000000000001
1.262
1.2690000000000001
1.2750000000000001
1.278
1.2770000000000001
1.2770000000000001
1.278
1.278
1.2770000000000001
1.2770000000000001
1.2770000000000001
1.28
1.2770000000000001
1.278
1.282
1.283
1.285
1.287
1.289
1.291
1.296
1.292
1.297
1.297
1.294
1.293
1.293
1.288
1.288
1.289
1.288
1.284
1.284
1.281
1.281
1.2690000000000001
1.2750000000000001
1.268
1.27
1.2650000000000001
1.2610000000000001
1.2550000000000001
1.25
1.2550000000000001
1.247
1.244
1.234
1.235
1.23
1.225
1.222
1.219
1.21
1.203
1.197
1.191
1.186
1.181
1.175
1.169
1.164
1.162
1.161
1.145
1.143
1.143
1.141
1.1380000000000001
1.1400000000000001
1.137
1.131
1.1320000000000001
1.1320000000000001
1.1340000000000001
1.129
1.118
1.118
1.113
1.116
1.121
1.114
1.119
1.117
1.119
1.119
1.114
1.119
1.112
1.12
1.119
1.118
1.121
1.124
1.1320000000000001
1.133
1.1340000000000001
1.141
1.139
1.145
1.1460000000000001
1.1420000000000001
1.1480000000000001
1.1460000000000001
1.1480000000000001
1.1500000000000001
1.1500000000000001
1.155
1.162
1.163
1.166
1.169
1.17
1.175
1.175
1.178
1.178
1.181
1.18
1.183
1.181
1.185
1.189
1.191
1.191
1.195
1.198
1.2
1.203
1.206
1.211
1.216
1.219
1.225
1.229
1.233
1.236
1.241
1.246
1.2510000000000001
1.2530000000000001
1.2550000000000001
1.2590000000000001
1.2590000000000001
1.264
1.268
1.2690000000000001
1.2670000000000001
1.2630000000000001
1.262
1.2630000000000001
1.2630000000000001
1.264
1.266
1.268
1.2730000000000001
1.2750000000000001
1.2770000000000001
1.283
1.283
1.283
1.285
1.283
1.2790000000000001
1.2790000000000001
1.278
1.2770000000000001
1.274
1.274
1.27
1.268
1.2690000000000001
1.264
1.2630000000000001
1.262
1.262
1.2590000000000001
1.2550000000000001
1.2550000000000001
1.247
1.247
1.245
1.239
1.237
1.236
1.235
1.232
1.228
1.223
1.222
1.215
1.211
1.209
1.204
1.199
1.195
1.19
1.181
1.177
1.174
1.169
1.165
1.164
1.156
1.149
1.1440000000000001
1.1320000000000001
1.133
1.131
1.129
1.123
1.125
1.12
1.121
1.115
1.116
1.113
1.113
1.112
1.11
1.112
1.114
1.112
1.113
1.114
1.117
1.115
1.116
1.116
1.119
1.119
1.119
1.121
1.125
1.1260000000000001
1.1260000000000001
1.1300000000000001
1.1320000000000001
1.1340000000000001
1.131
1.1320000000000001
1.1320000000000001
1.131
1.133
1.133
1.133
1.135
1.135
1.137
1.137
1.139
1.139
1.137
1.137
1.1380000000000001
1.1380000000000001
1.139
1.1400000000000001
1.1460000000000001
1.1520000000000001
1.1520000000000001
1.157
1.159
1.164
1.169
1.171
1.175
1.18
1.182
1.185
1.182
1.186
1.191
1.188
1.199
1.196
1.199
1.203
1.209
1.212
1.215
1.215
1.22
1.221
1.222
1.228
1.226
1.23
1.234
1.241
1.234
1.238
1.239
1.242
1.2510000000000001
1.2550000000000001
1.26
1.2590000000000001
1.262
1.2590000000000001
1.258
1.2590000000000001
1.258
1.262
1.272
1.2730000000000001
1.2750000000000001
1.2790000000000001
1.278
1.284
1.281
1.288
1.2790000000000001
1.284
1.286
1.28
1.287
1.287
1.2690000000000001
1.2690000000000001
1.2550000000000001
1.254
1.245
1.237
1.233
1.235
1.225
1.215
1.217
1.213
1.211
1.203
1.205
1.192
1.191
1.187
1.181
1.175
1.174
1.17
1.165
1.161
1.157
1.157
1.153
1.149
1.145
1.143
1.139
1.137
1.133
1.131
1.127
1.121
1.118
1.119
1.116
1.109
1.108
1.103
1.103
1.1
1.099
1.099
1.098
1.096
1.095
1.097
1.096
1.097
1.099
1.102
1.104
1.103
1.107
1.108
1.11
1.112
1.114
1.116
1.119
1.122
1.122
1.123
1.1260000000000001
1.127
1.129
1.135
1.135
1.139
1.139
1.1380000000000001
1.1360000000000001
1.137
1.1380000000000001
1.139
1.139
1.1420000000000001
1.1440000000000001
1.1460000000000001
1.147
1.1480000000000001
1.149
1.151
1.151
1.153
1.154
1.157
1.158
1.163
1.166
1.163
1.169
1.174
1.174
1.178
1.181
1.183
1.183
1.187
1.187
1.191
1.193
1.194
1.199
1.202
1.206
1.209
1.214
1.218
1.223
1.227
1.231
1.234
1.238
1.242
1.245
1.249
1.2530000000000001
1.247
1.247
1.247
1.2510000000000001
1.25
1.248
1.25
1.247
1.2530000000000001
1.258
1.256
1.2550000000000001
1.258
1.258
1.2590000000000001
1.26
1.2610000000000001
1.262
1.262
1.2610000000000001
1.2610000000000001
1.26
1.2570000000000001
1.26
1.256
1.2550000000000001
1.254
1.252
1.2530000000000001
1.249
1.245
1.242
1.242
1.237
1.233
1.23
1.227
1.224
1.221
1.217
1.216
1.212
1.207
1.206
1.197
1.194
1.189
1.186
1.177
1.175
1.168
1.162
1.157
1.1520000000000001
1.145
1.143
1.137
1.133
1.131
1.124
1.123
1.118
1.117
1.112
1.114
1.112
1.106
1.107
1.108
1.105
1.108
1.107
1.104
1.103
1.103
1.103
1.103
1.103
1.1
1.103
1.099
1.096
1.097
1.099
1.098
1.107
1.106
1.103
1.106
1.101
1.101
1.101
1.103
1.109
1.108
1.103
1.109
1.115
1.113
1.114
1.122
1.119
1.123
1.1280000000000001
1.1280000000000001
1.131
1.131
1.135
1.135
1.1300000000000001
1.1380000000000001
1.1360000000000001
1.1440000000000001
1.163
1.164
1.171
1.173
1.173
1.175
1.179
1.166
1.175
1.183
1.185
1.189
1.19
1.192
1.192
1.2
1.203
1.204
1.208
1.217
1.222
1.223
1.229
1.232
1.229
1.227
1.238
1.237
1.231
1.231
1.232
1.238
1.24
1.233
1.237
1.243
1.244
1.249
1.254
1.258
1.2530000000000001
1.2550000000000001
1.2550000000000001
1.254
1.2570000000000001
1.256
1.256
1.254
1.254
1.2510000000000001
1.249
1.245
1.244
1.242
1.242
1.239
1.239
1.236
1.236
1.232
1.229
1.224
1.223
1.22
1.221
1.218
1.215
1.211
1.21
1.207
1.204
1.199
1.195
1.193
1.189
1.183
1.175
1.173
1.167
1.16
1.159
1.154
1.1500000000000001
1.1480000000000001
1.1420000000000001
1.139
1.129
1.1280000000000001
1.124
1.121
1.117
1.116
1.111
1.11
1.107
1.105
1.1
1.1
1.097
1.097
1.098
1.093
1.094
1.092
1.095
1.091
1.091
1.09
1.089
1.088
1.091
1.089
1.091
1.093
1.095
1.095
1.097
1.099
1.102
1.105
1.105
1.105
1.106
1.105
1.109
1.114
1.117
1.113
1.114
1.119
1.12
1.123
1.127
1.127
1.1300000000000001
1.127
1.129
1.127
1.129
1.129
1.133
1.131
1.133
1.135
1.137
1.1420000000000001
1.143
1.1480000000000001
1.1520000000000001
1.156
1.159
1.163
1.167
1.17
1.175
1.175
1.178
1.182
1.186
1.189
1.189
1.193
1.195
1.199
1.203
1.211
1.213
1.218
1.22
1.225
1.225
1.229
1.231
1.233
1.239
1.235
1.234
1.239
1.239
1.235
1.231
1.233
1.231
1.233
1.241
1.247
1.2510000000000001
1.2510000000000001
1.249
1.2510000000000001
1.247
1.2530000000000001
1.246
1.249
1.2510000000000001
1.249
1.249
1.2510000000000001
1.243
1.239
1.235
1.229
1.226
1.219
1.212
1.207
1.196
1.185
1.181
1.177
1.171
1.171
1.162
1.155
1.1520000000000001
1.139
1.1340000000000001
1.133
1.121
1.108
1.104
1.09
1.09
1.083
1.075
1.074
1.077
1.075
1.071
1.075
1.077
1.079
1.081
1.086
1.092
1.098
1.093
1.097
1.098
1.101
1.101
1.105
1.101
1.1
1.102
1.105
1.105
1.107
1.104
1.109
1.11
1.11
1.111
1.115
1.119
1.123
1.127
1.129
1.133
1.1360000000000001
1.1380000000000001
1.1420000000000001
1.143
1.147
1.149
1.1520000000000001
1.157
1.16
1.163
1.165
1.165
1.164
1.172
1.175
1.177
1.179
1.182
1.187
1.191
1.195
1.199
1.203
1.211
1.214
1.215
1.218
1.221
1.225
1.227
1.223
1.224
1.225
1.225
1.223
1.229
1.235
1.236
1.237
1.239
1.24
1.238
1.239
1.238
1.235
1.237
1.23
1.228
1.233
1.222
1.223
1.223
1.227
1.225
1.222
1.218
1.212
1.207
1.205
1.201
1.195
1.191
1.185
1.181
1.175
1.17
1.164
1.163
1.153
1.141
1.139
1.1320000000000001
1.127
1.122
1.118
1.111
1.104
1.098
1.093
1.088
1.085
1.083
1.08
1.081
1.079
1.077
1.075
1.077
1.076
1.075
1.077
1.078
1.073
1.069
1.074
1.07
1.074
1.076
1.078
1.086
1.086
1.084
1.087
1.092
1.095
1.099
1.102
1.105
1.111
1.107
1.103
1.103
1.107
1.114
1.111
1.117
1.116
1.119
1.123
1.125
1.124
1.129
1.131
1.133
1.135
1.143
1.1420000000000001
1.143
1.147
1.1480000000000001
1.155
1.156
1.163
1.164
1.172
1.176
1.187
1.187
1.192
1.194
1.203
1.209
1.209
1.21
1.209
1.218
1.229
1.226
1.226
1.226
1.231
1.231
1.239
1.24
1.242
1.247
1.238
1.243
1.243
1.239
1.237
1.235
1.232
1.232
1.223
1.223
1.222
1.219
1.219
1.21
1.207
1.201
1.197
1.191
1.186
1.18
1.174
1.169
1.162
1.155
1.149
1.1420000000000001
1.139
1.1300000000000001
1.129
1.122
1.118
1.113
1.107
1.109
1.102
1.099
1.095
1.094
1.093
1.09
1.087
1.086
1.086
1.081
1.082
1.076
1.075
1.074
1.071
1.069
1.067
1.067
1.069
1.067
1.07
1.075
1.075
1.075
1.077
1.083
1.084
1.086
1.087
1.091
1.094
1.095
1.1
1.102
1.103
1.105
1.107
1.11
1.11
1.113
1.111
1.112
1.113
1.116
1.115
1.118
1.121
1.124
1.1300000000000001
1.135
1.135
1.1360000000000001
1.1360000000000001
1.139
1.143
1.143
1.1480000000000001
1.153
1.157
1.159
1.164
1.167
1.175
1.177
1.183
1.189
1.195
1.2
1.205
1.207
1.214
1.219
1.222
1.225
1.223
1.225
1.224
1.221
1.222
1.221
1.22
1.219
1.223
1.227
1.233
1.234
1.237
1.238
1.239
1.239
1.24
1.24
1.236
1.234
1.231
1.23
1.225
1.226
1.225
1.215
1.217
1.211
1.204
1.201
1.2
1.197
1.195
1.192
1.185
1.187
1.185
1.175
1.17
1.162
1.157
1.151
1.1460000000000001
1.1400000000000001
1.133
1.12
1.115
1.113
1.107
1.101
1.093
1.089
1.093
1.086
1.085
1.084
1.083
1.079
1.078
1.072
1.068
1.069
1.072
1.073
1.071
1.068
1.066
1.069
1.075
1.076
1.078
1.079
1.078
1.076
1.08
1.08
1.08
1.099
1.103
1.105
1.103
1.106
1.107
1.116
1.114
1.118
1.122
1.121
1.125
1.129
1.131
1.135
1.139
1.151
1.1460000000000001
1.151
1.154
1.157
1.161
1.163
1.164
1.169
1.169
1.173
1.177
1.184
1.187
1.191
1.195
1.197
1.199
1.206
1.211
1.212
1.213
1.212
1.21
1.211
1.211
1.21
1.211
1.214
1.219
1.225
1.227
1.225
1.228
1.224
1.229
1.223
1.219
1.225
1.223
1.219
1.215
1.218
1.211
1.215
1.213
1.209
1.215
1.203
1.19
1.193
1.189
1.187
1.185
1.181
1.175
1.17
1.165
1.158
1.1520000000000001
1.145
1.139
1.133
1.131
1.129
1.123
1.119
1.115
1.11
1.103
1.1
1.095
1.091
1.088
1.082
1.079
1.078
1.075
1.07
1.063
1.061
1.059
1.059
1.058
1.058
1.057
1.056
1.057
1.055
1.057
1.058
1.062
1.066
1.068
1.071
1.075
1.076
1.079
1.079
1.082
1.083
1.085
1.088
1.091
1.091
1.093
1.091
1.093
1.095
1.093
1.092
1.096
1.101
1.101
1.102
1.106
1.111
1.119
1.115
1.115
1.12
1.121
1.124
1.1280000000000001
1.135
1.137
1.145
1.147
1.153
1.162
1.167
1.171
1.174
1.176
1.181
1.178
1.189
1.191
1.202
1.204
1.204
1.205
1.21
1.215
1.214
1.209
1.209
1.208
1.206
1.211
1.205
1.217
1.22
1.223
1.218
1.23
1.233
1.227
1.227
1.228
1.228
1.221
1.217
1.213
1.212
1.203
1.188
1.169
1.162
1.155
1.1420000000000001
1.139
1.1360000000000001
1.131
1.123
1.117
1.111
1.107
1.103
1.099
1.091
1.087
1.083
1.083
1.082
1.076
1.077
1.074
1.071
1.069
1.065
1.063
1.055
1.055
1.053
1.051
1.049
1.047
1.049
1.05
1.051
1.053
1.054
1.057
1.055
1.055
1.055
1.057
1.058
1.059
1.059
1.063
1.066
1.068
1.07
1.07
1.074
1.074
1.075
1.075
1.079
1.078
1.081
1.085
1.089
1.095
1.095
1.097
1.098
1.105
1.108
1.11
1.115
1.117
1.123
1.124
1.129
1.135
1.1380000000000001
1.1460000000000001
1.149
1.154
1.164
1.169
1.171
1.177
1.182
1.189
1.197
1.202
1.206
1.211
1.217
1.221
1.226
1.226
1.225
1.222
1.221
1.217
1.215
1.216
1.217
1.217
1.22
1.223
1.227
1.229
1.231
1.227
1.229
1.229
1.227
1.225
1.225
1.223
1.22
1.219
1.217
1.214
1.21
1.209
1.204
1.199
1.194
1.19
1.187
1.186
1.181
1.179
1.178
1.172
1.165
1.158
1.1480000000000001
1.1380000000000001
1.1300000000000001
1.1300000000000001
1.125
1.124
1.118
1.114
1.11
1.105
1.097
1.089
1.082
1.078
1.076
1.073
1.068
1.069
1.065
1.064
1.063
1.06
1.059
1.055
1.055
1.055
1.054
1.058
1.065
1.063
1.063
1.066
1.067
1.074
1.074
1.076
1.073
1.077
1.078
1.082
1.083
1.089
1.089
1.082
1.078
1.087
1.083
1.088
1.1
1.102
1.105
1.113
1.109
1.118
1.123
1.118
1.1300000000000001
1.1380000000000001
1.149
1.154
1.153
1.168
1.176
1.175
1.176
1.181
1.183
1.189
1.191
1.194
1.199
1.197
1.199
1.196
1.195
1.196
1.197
1.199
1.199
1.205
1.21
1.215
1.223
1.224
1.226
1.227
1.223
1.22
1.217
1.212
1.21
1.215
1.209
1.205
1.201
1.199
1.191
1.188
1.185
1.182
1.179
1.173
1.17
1.166
1.162
1.156
1.1500000000000001
1.147
1.1420000000000001
1.1360000000000001
1.1340000000000001
1.121
1.117
1.11
1.103
1.101
1.101
1.1
1.098
1.093
1.091
1.089
1.087
1.083
1.081
1.079
1.079
1.073
1.068
1.065
1.061
1.06
1.059
1.058
1.058
1.055
1.053
1.053
1.054
1.057
1.058
1.063
1.063
1.065
1.067
1.069
1.071
1.075
1.074
1.077
1.081
1.086
1.087
1.088
1.09
1.093
1.095
1.097
1.097
1.095
1.098
1.101
1.101
1.103
1.103
1.107
1.109
1.112
1.117
1.119
1.1260000000000001
1.1260000000000001
1.1300000000000001
1.1320000000000001
1.1340000000000001
1.139
1.1420000000000001
1.1460000000000001
1.151
1.153
1.157
1.161
1.164
1.169
1.174
1.179
1.183
1.185
1.189
1.189
1.195
1.198
1.201
1.207
1.206
1.205
1.202
1.199
1.198
1.198
1.198
1.203
1.209
1.211
1.222
1.22
1.225
1.223
1.224
1.228
1.22
1.22
1.219
1.218
1.219
1.217
1.218
1.213
1.207
1.201
1.21
1.196
1.191
1.188
1.183
1.176
1.165
1.169
1.162
1.159
1.147
1.1380000000000001
1.1280000000000001
1.124
1.114
1.103
1.098
1.092
1.091
1.084
1.08
1.071
1.069
1.066
1.072
1.067
1.063
1.057
1.057
1.055
1.053
1.054
1.059
1.06
1.063
1.061
1.063
1.066
1.066
1.067
1.074
1.074
1.075
1.078
1.083
1.085
1.089
1.091
1.091
1.093
1.09
1.093
1.091
1.091
1.094
1.096
1.099
1.102
1.104
1.109
1.112
1.114
1.117
1.122
1.124
1.1300000000000001
1.1320000000000001
1.1380000000000001
1.141
1.1460000000000001
1.151
1.1520000000000001
1.157
1.158
1.16
1.165
1.168
1.171
1.174
1.179
1.179
1.183
1.185
1.186
1.189
1.191
1.19
1.191
1.192
1.194
1.196
1.195
1.199
1.203
1.21
1.215
1.218
1.222
1.225
1.225
1.227
1.225
1.225
1.223
1.218
1.221
1.219
1.219
1.213
1.211
1.21
1.205
1.201
1.197
1.192
1.183
1.18
1.177
1.172
1.172
1.163
1.155
1.149
1.1420000000000001
1.141
1.124
1.131
1.114
1.119
1.114
1.111
1.105
1.101
1.094
1.09
1.084
1.08
1.077
1.073
1.069
1.062
1.063
1.061
1.06
1.059
1.058
1.057
1.058
1.055
1.054
1.052
1.051
1.051
1.051
1.053
1.059
1.059
1.061
1.062
1.065
1.067
1.069
1.075
1.076
1.081
1.084
1.087
1.086
1.09
1.095
1.098
1.101
1.103
1.098
1.093
1.099
1.105
1.098
1.107
1.108
1.111
1.118
1.118
1.122
1.123
1.133
1.129
1.1320000000000001
1.133
1.139
1.1400000000000001
1.1440000000000001
1.145
1.147
1.158
1.165
1.169
1.178
1.181
1.183
1.185
1.189
1.19
1.197
1.194
1.2
1.196
1.191
1.191
1.209
1.215
1.215
1.212
1.208
1.207
1.201
1.205
1.203
1.202
1.203
1.201
1.201
1.197
1.196
1.191
1.189
1.183
1.179
1.175
1.167
1.164
1.159
1.155
1.149
1.143
1.137
1.133
1.127
1.121
1.119
1.113
1.11
1.103
1.095
1.089
1.084
1.079
1.072
1.071
1.069
1.061
1.06
1.058
1.057
1.057
1.055
1.055
1.052
1.053
1.049
1.047
1.045
1.043
1.047
1.045
1.045
1.049
1.054
1.057
1.058
1.057
1.06
1.061
1.063
1.063
1.069
1.071
1.074
1.07
1.073
1.077
1.079
1.081
1.083
1.085
1.084
1.087
1.089
1.09
1.092
1.093
1.095
1.094
1.098
1.099
1.101
1.106
1.111
1.113
1.116
1.118
1.123
1.125
1.127
1.131
1.135
1.1380000000000001
1.141
1.143
1.149
1.153
1.158
1.163
1.169
1.174
1.175
1.178
1.185
1.188
1.191
1.196
1.199
1.199
1.199
1.197
1.199
1.201
1.201
1.204
1.207
1.213
1.213
1.214
1.214
1.218
1.215
1.217
1.211
1.213
1.211
1.21
1.21
1.206
1.203
1.202
1.199
1.196
1.191
1.189
1.179
1.177
1.175
1.175
1.174
1.173
1.167
1.159
1.155
1.147
1.141
1.143
1.1280000000000001
1.125
1.124
1.114
1.107
1.106
1.099
1.099
1.087
1.087
1.081
1.075
1.073
1.067
1.064
1.061
1.061
1.06
1.058
1.056
1.059
1.051
1.053
1.049
1.051
1.053
1.048
1.064
1.053
1.059
1.063
1.061
1.062
1.069
1.073
1.073
1.071
1.082
1.076
1.09
1.096
1.095
1.096
1.097
1.091
1.101
1.106
1.105
1.11
1.118
1.123
1.124
1.131
1.129
1.1380000000000001
1.141
1.143
1.149
1.147
1.1480000000000001
1.153
1.159
1.163
1.165
1.183
1.183
1.186
1.193
1.196
1.198
1.199
1.195
1.193
1.191
1.189
1.187
1.188
1.191
1.194
1.198
1.202
1.205
1.209
1.21
1.211
1.213
1.213
1.212
1.211
1.21
1.209
1.205
1.206
1.205
1.202
1.202
1.195
1.19
1.189
1.183
1.179
1.174
1.165
1.163
1.157
1.1500000000000001
1.147
1.141
1.135
1.131
1.12
1.115
1.111
1.106
1.1
1.093
1.091
1.087
1.085
1.08
1.078
1.073
1.07
1.067
1.066
1.063
1.061
1.056
1.057
1.057
1.052
1.049
1.046
1.045
1.042
1.05
1.046
1.05
1.046
1.053
1.057
1.059
1.061
1.063
1.063
1.065
1.067
1.069
1.074
1.074
1.075
1.078
1.079
1.084
1.083
1.084
1.087
1.087
1.089
1.09
1.091
1.093
1.094
1.097
1.099
1.1
1.103
1.103
1.107
1.111
1.113
1.118
1.119
1.119
1.121
1.125
1.129
1.133
1.1380000000000001
1.143
1.141
1.1440000000000001
1.147
1.153
1.159
1.168
1.174
1.179
1.182
1.188
1.186
1.198
1.197
1.195
1.195
1.194
1.191
1.192
1.195
1.192
1.194
1.195
1.193
1.199
1.205
1.211
1.211
1.221
1.219
1.227
1.223
1.225
1.223
1.223
1.223
1.229
1.219
1.214
1.221
1.206
1.207
1.208
1.204
1.181
1.164
1.159
1.153
1.1480000000000001
1.139
1.1300000000000001
1.1300000000000001
1.12
1.115
1.112
1.108
1.103
1.094
1.089
1.085
1.082
1.077
1.076
1.077
1.075
1.073
1.074
1.069
1.067
1.065
1.064
1.059
1.056
1.053
1.052
1.051
1.051
1.049
1.048
1.043
1.039
1.047
1.043
1.036
1.042
1.039
1.046
1.05
1.047
1.051
1.051
1.05
1.053
1.054
1.054
1.057
1.061
1.062
1.067
1.07
1.073
1.076
1.078
1.077
1.08
1.083
1.086
1.09
1.093
1.097
1.102
1.103
1.107
1.111
1.114
1.117
1.118
1.121
1.123
1.125
1.129
1.1300000000000001
1.135
1.139
1.141
1.145
1.147
1.151
1.154
1.157
1.162
1.164
1.168
1.174
1.181
1.183
1.185
1.191
1.194
1.196
1.197
1.192
1.191
1.191
1.191
1.191
1.196
1.198
1.2
1.206
1.206
1.209
1.205
1.212
1.211
1.209
1.206
1.205
1.204
1.201
1.199
1.197
1.198
1.195
1.191
1.187
1.182
1.182
1.173
1.169
1.166
1.165
1.162
1.158
1.151
1.145
1.1400000000000001
1.1340000000000001
1.131
1.125
1.119
1.116
1.11
1.106
1.099
1.095
1.089
1.086
1.077
1.068
1.065
1.066
1.055
1.053
1.05
1.049
1.049
1.043
1.043
1.044
1.047
1.045
1.046
1.049
1.051
1.046
1.05
1.046
1.047
1.048
1.054
1.054
1.06
1.065
1.073
1.076
1.073
1.075
1.075
1.079
1.085
1.081
1.083
1.079
1.085
1.082
1.085
1.091
1.087
1.094
1.1
1.098
1.102
1.11
1.111
1.115
1.125
1.127
1.122
1.1440000000000001
1.161
1.164
1.176
1.177
1.177
1.181
1.179
1.191
1.191
1.193
1.188
1.184
1.187
1.189
1.192
1.196
1.202
1.203
1.207
1.209
1.214
1.213
1.213
1.213
1.211
1.213
1.213
1.209
1.206
1.204
1.203
1.201
1.197
1.195
1.188
1.19
1.185
1.179
1.174
1.169
1.166
1.164
1.156
1.151
1.143
1.137
1.133
1.127
1.119
1.114
1.109
1.105
1.101
1.098
1.094
1.089
1.086
1.084
1.077
1.072
1.069
1.065
1.063
1.062
1.059
1.059
1.055
1.054
1.046
1.047
1.043
1.042
1.041
1.038
1.037
1.038
1.038
1.038
1.039
1.041
1.045
1.047
1.05
1.047
1.051
1.05
1.053
1.059
1.061
1.068
1.071
1.071
1.069
1.074
1.072
1.075
1.076
1.082
1.082
1.084
1.084
1.087
1.091
1.094
1.095
1.097
1.099
1.103
1.105
1.107
1.114
1.112
1.115
1.116
1.123
1.127
1.1300000000000001
1.135
1.1380000000000001
1.1420000000000001
1.147
1.1500000000000001
1.156
1.162
1.166
1.17
1.178
1.185
1.189
1.193
1.197
1.202
1.205
1.207
1.203
1.202
1.199
1.2
1.199
1.199
1.201
1.203
1.207
1.21
1.209
1.218
1.217
1.216
1.217
1.215
1.217
1.214
1.211
1.209
1.211
1.215
1.213
1.211
1.209
1.201
1.2
1.193
1.188
1.178
1.179
1.174
1.171
1.165
1.161
1.155
1.151
1.1340000000000001
1.1280000000000001
1.112
1.112
1.103
1.091
1.091
1.088
1.079
1.079
1.071
1.066
1.063
1.059
1.055
1.049
1.054
1.045
1.043
1.044
1.05
1.054
1.052
1.051
1.06
1.057
1.063
1.065
1.064
1.071
1.07
1.068
1.083
1.088
1.091
1.093
1.093
1.092
1.093
1.091
1.088
1.092
1.095
1.097
1.095
1.099
1.103
1.106
1.109
1.113
1.117
1.12
1.122
1.1260000000000001
1.1340000000000001
1.135
1.137
1.143
1.1480000000000001
1.1520000000000001
1.155
1.161
1.166
1.167
1.173
1.178
1.183
1.186
1.187
1.191
1.191
1.193
1.195
1.195
1.192
1.193
1.193
1.195
1.197
1.207
1.214
1.213
1.219
1.222
1.221
1.219
1.222
1.219
1.218
1.212
1.213
1.211
1.208
1.206
1.203
1.202
1.195
1.192
1.183
1.18
1.178
1.173
1.169
1.165
1.161
1.158
1.153
1.147
1.143
1.137
1.135
1.127
1.118
1.113
1.109
1.105
1.101
1.099
1.095
1.089
1.083
1.079
1.074
1.069
1.068
1.063
1.061
1.055
1.052
1.048
1.046
1.043
1.041
1.041
1.039
1.039
1.036
1.036
1.036
1.037
1.038
1.045
1.048
1.052
1.052
1.06
1.062
1.067
1.066
1.073
1.079
1.078
1.077
1.079
1.079
1.079
1.075
1.075
1.073
1.071
1.086
1.087
1.085
1.089
1.09
1.093
1.093
1.094
1.097
1.106
1.108
1.108
1.114
1.117
1.118
1.123
1.123
1.133
1.133
1.1380000000000001
1.1360000000000001
1.145
1.156
1.162
1.164
1.176
1.175
1.185
1.191
1.192
1.195
1.197
1.196
1.2
1.186
1.183
1.181
1.212
1.221
1.213
1.215
1.213
1.206
1.203
1.201
1.201
1.201
1.201
1.193
1.191
1.191
1.186
1.181
1.182
1.177
1.173
1.167
1.159
1.1500000000000001
1.139
1.135
1.125
1.122
1.117
1.111
1.106
1.1
1.095
1.09
1.081
1.077
1.071
1.066
1.062
1.059
1.055
1.045
1.046
1.045
1.044
1.039
1.039
1.038
1.036
1.035
1.031
1.031
1.031
1.029
1.028
1.029
1.031
1.032
1.034
1.037
1.037
1.037
1.038
1.036
1.038
1.039
1.041
1.043
1.047
1.049
1.05
1.054
1.057
1.061
1.061
1.06
1.057
1.061
1.059
1.065
1.07
1.076
1.083
1.092
1.094
1.099
1.104
1.114
1.115
1.118
1.125
1.131
1.137
1.1400000000000001
1.145
1.147
1.1500000000000001
1.149
1.1500000000000001
1.1520000000000001
1.158
1.159
1.163
1.164
1.17
1.174
1.177
1.18
1.182
1.184
1.188
1.19
1.19
1.191
1.191
1.192
1.191
1.192
1.194
1.198
1.202
1.203
1.207
1.211
1.214
1.218
1.215
1.214
1.212
1.213
1.208
1.206
1.206
1.205
1.203
1.2
1.197
1.195
1.19
1.186
1.182
1.179
1.179
1.171
1.164
1.162
1.154
1.151
1.149
1.1400000000000001
1.1320000000000001
1.1280000000000001
1.119
1.115
1.109
1.11
1.099
1.095
1.093
1.085
1.081
1.083
1.075
1.073
1.068
1.065
1.065
1.057
1.059
1.055
1.051
1.052
1.047
1.047
1.046
1.043
1.042
1.039
1.039
1.039
1.035
1.029
1.031
1.02
1.034
1.033
1.04
1.041
1.044
1.05
1.054
1.049
1.054
1.056
1.06
1.055
1.062
1.065
1.063
1.062
1.072
1.084
1.081
1.086
1.087
1.085
1.092
1.092
1.097
1.104
1.103
1.109
1.11
1.111
1.123
1.122
1.1260000000000001
1.129
1.139
1.139
1.1420000000000001
1.143
1.1500000000000001
1.158
1.169
1.169
1.175
1.181
1.185
1.183
1.183
1.187
1.185
1.187
1.188
1.188
1.189
1.186
1.185
1.185
1.183
1.183
1.181
1.183
1.183
1.183
1.187
1.189
1.192
1.194
1.193
1.197
1.199
1.201
1.201
1.198
1.194
1.199
1.197
1.191
1.189
1.188
1.191
1.192
1.194
1.199
1.19
1.157
1.154
1.1460000000000001
1.135
1.131
1.123
1.121
1.11
1.107
1.101
1.093
1.079
1.08
1.067
1.061
1.053
1.049
1.046
1.039
1.035
1.035
1.031
1.032
1.03
1.031
1.031
1.03
1.028
1.027
1.029
1.031
1.033
1.034
1.039
1.043
1.045
1.047
1.049
1.05
1.051
1.054
1.057
1.059
1.06
1.062
1.067
1.067
1.071
1.073
1.077
1.078
1.079
1.081
1.083
1.089
1.089
1.091
1.094
1.096
1.103
1.106
1.11
1.114
1.119
1.137
1.1320000000000001
1.1380000000000001
1.1420000000000001
1.1440000000000001
1.149
1.1520000000000001
1.153
1.158
1.162
1.168
1.175
1.179
1.184
1.191
1.193
1.194
1.19
1.191
1.192
1.191
1.194
1.183
1.184
1.18
1.186
1.187
1.185
1.188
1.199
1.199
1.201
1.199
1.2
1.198
1.199
1.199
1.2
1.201
1.2
1.198
1.199
1.195
1.196
1.194
1.194
1.189
1.19
1.19
1.19
1.183
1.182
1.18
1.172
1.169
1.167
1.166
1.161
1.16
1.159
1.156
1.155
1.154
1.157
1.154
1.141
1.137
1.127
1.125
1.114
1.107
1.103
1.097
1.097
1.081
1.078
1.082
1.075
1.065
1.06
1.056
1.053
1.048
1.048
1.047
1.046
1.047
1.047
1.036
1.042
1.033
1.035
1.035
1.032
1.03
1.031
1.031
1.031
1.033
1.036
1.035
1.037
1.039
1.033
1.039
1.042
1.049
1.044
1.053
1.052
1.05
1.055
1.06
1.059
1.055
1.059
1.063
1.061
1.061
1.059
1.065
1.059
1.065
1.062
1.068
1.071
1.069
1.069
1.071
1.071
1.073
1.075
1.077
1.075
1.078
1.082
1.083
1.083
1.085
1.089
1.091
1.094
1.097
1.099
1.101
1.103
1.106
1.108
1.11
1.117
1.119
1.125
1.131
1.131
1.131
1.133
1.135
1.135
1.1400000000000001
1.143
1.143
1.145
1.151
1.151
1.156
1.156
1.165
1.167
1.171
1.171
1.171
1.173
1.173
1.175
1.175
1.177
1.178
1.182
1.18
1.181
1.182
1.183
1.183
1.183
1.191
1.19
1.191
1.195
1.199
1.201
1.203
1.205
1.204
1.206
1.208
1.211
1.206
1.211
1.207
1.207
1.209
1.204
1.201
1.199
1.199
1.197
1.195
1.197
1.189
1.19
1.186
1.184
1.184
1.18
1.175
1.173
1.17
1.165
1.163
1.16
1.155
1.1460000000000001
1.1440000000000001
1.137
1.133
1.127
1.1260000000000001
