0.484
0.488
0.487
0.488
0.483
0.4815
0.483
0.486
0.4875
0.4875
0.487
0.4885
0.4895
0.49
0.4905
0.495
0.494
0.492
0.4895
0.49
0.486
0.4875
0.4895
0.4895
0.4905
0.4875
0.4895
0.489
0.4885
0.4885
0.49
0.4895
0.489
0.4895
0.4905
0.4905
0.4845
0.489
0.488
0.4865
0.4885
0.485
0.4885
0.4875
0.4885
0.4915
0.4915
0.4915
0.492
0.4895
0.492
0.4935
0.4915
0.494
0.4935
0.4935
0.493
0.497
0.494
0.4945
0.4945
0.4935
0.4935
0.494
0.4945
0.4945
0.4955
0.4955
0.4945
0.4955
0.4965
0.4965
0.4955
0.4965
0.4955
0.4955
0.494
0.495
0.4915
0.4935
0.493
0.491
0.4915
0.4905
0.4915
0.4885
0.4885
0.4875
0.4855
0.486
0.489
0.4885
0.5065000000000001
0.6545
0.8505
0.918
0.8775000000000001
0.7915
0.7195
0.6665
0.6325000000000001
0.5995
0.584
0.5945
0.615
0.5715
0.531
0.5075000000000001
0.488
0.484
0.485
0.4845
0.486
0.485
0.4855
0.486
0.488
0.4875
0.49
0.4895
0.4895
0.489
0.4895
0.487
0.4885
0.4905
0.491
0.4925
0.4925
0.494
0.493
0.495
0.492
0.4915
0.4935
0.4945
0.495
0.4945
0.495
0.495
0.4905
0.4955
0.4945
0.4945
0.4935
0.493
0.4955
0.4955
0.495
0.493
0.4955
0.495
0.4935
0.4935
0.4935
0.4925
0.493
0.493
0.4945
0.4935
0.4925
0.4945
0.4935
0.496
0.4945
0.4955
0.4955
0.4955
0.496
0.4955
0.4945
0.4955
0.4955
0.493
0.4945
0.492
0.4945
0.495
0.493
0.4915
0.4915
0.491
0.4905
0.4875
0.4885
0.489
0.4925
0.4925
0.4935
0.494
0.494
0.495
0.4945
0.4965
0.4955
0.495
0.4955
0.4955
0.4975
0.4965
0.4965
0.495
0.497
0.497
0.4975
0.497
0.498
0.497
0.4975
0.4985
0.4965
0.4985
0.499
0.498
0.4995
0.4985
0.4985
0.499
0.4985
0.498
0.4985
0.498
0.4975
0.497
0.498
0.4965
0.496
0.4955
0.4955
0.495
0.4955
0.4945
0.4955
0.495
0.495
0.4955
0.5025000000000001
0.5085000000000001
0.521
0.535
0.5750000000000001
0.6815
0.77
0.7995
0.7805
0.735
0.6865
0.6485
0.6165
0.5915
0.5705
0.556
0.547
0.561
0.592
0.6075
0.6075
0.593
0.5725
0.5545
0.5395
0.5285
0.5195
0.5145
0.5085000000000001
0.5035000000000001
0.5015000000000001
0.4985
0.4955
0.4965
0.4965
0.4955
0.495
0.4945
0.4925
0.495
0.4945
0.4945
0.4945
0.495
0.495
0.4955
0.4955
0.4935
0.4955
0.4965
0.495
0.4955
0.495
0.495
0.496
0.4955
0.4945
0.4955
0.4955
0.4955
0.495
0.495
0.4955
0.4945
0.495
0.496
0.494
0.4955
0.4965
0.4955
0.4955
0.4955
0.4955
0.496
0.4945
0.4955
0.4955
0.4965
0.4955
0.4955
0.4945
0.4935
0.4915
0.491
0.4885
0.491
0.4915
0.494
0.4945
0.4945
0.4955
0.4955
0.497
0.495
0.4955
0.4975
0.495
0.4975
0.4955
0.4955
0.4955
0.4935
0.4915
0.4945
0.494
0.494
0.4935
0.4955
0.4955
0.4945
0.4945
0.4935
0.4945
0.494
0.494
0.495
0.4915
0.4935
0.4915
0.492
0.4915
0.4905
0.4895
0.4895
0.4885
0.486
0.489
0.49
0.488
0.491
0.4905
0.4875
0.49
0.49
0.4885
0.4895
0.4905
0.4895
0.491
0.4935
0.489
0.4925
0.4885
0.486
0.4875
0.4875
0.487
0.486
0.4865
0.488
0.486
0.489
0.486
0.487
0.4895
0.488
0.492
0.512
0.5495
0.593
0.6995
0.8365
0.904
0.896
0.8435
0.7785
0.725
0.6935
0.6655
0.6405
0.6165
0.601
0.598
0.6155
0.648
0.6725
0.6725
0.6515
0.623
0.5945
0.5720000000000001
0.5515
0.538
0.526
0.5185
0.511
0.506
0.5025000000000001
0.499
0.498
0.4965
0.494
0.4925
0.491
0.491
0.4915
0.4895
0.4895
0.486
0.4865
0.4855
0.485
0.4865
0.487
0.4855
0.486
0.4845
0.4845
0.4845
0.486
0.4875
0.4875
0.49
0.489
0.4905
0.491
0.492
0.491
0.4905
0.49
0.4915
0.4925
0.4905
0.491
0.492
0.491
0.4915
0.492
0.4895
0.4905
0.4925
0.491
0.4935
0.491
0.4925
0.492
0.49
0.4925
0.4895
0.4915
0.492
0.4925
0.4915
0.4905
0.4915
0.4905
0.491
0.4925
0.4915
0.4925
0.4925
0.49
0.4915
0.491
0.49
0.4915
0.4925
0.4885
0.492
0.4925
0.4915
0.4935
0.49
0.491
0.4885
0.4915
0.493
0.491
0.4885
0.4885
0.4885
0.486
0.4915
0.4875
0.4875
0.487
0.487
0.4845
0.485
0.486
0.4865
0.488
0.4855
0.489
0.4885
0.488
0.4865
0.487
0.4845
0.4845
0.4855
0.488
0.4905
0.488
0.4865
0.489
0.49
0.4895
0.4875
0.4865
0.4875
0.4865
0.483
0.47950000000000004
0.4855
0.486
0.484
0.485
0.485
0.4835
0.4845
0.4875
0.498
0.5315
0.6345000000000001
0.7975
0.8845000000000001
0.8895000000000001
0.838
0.7715
0.713
0.6645
0.6275000000000001
0.5975
0.5750000000000001
0.5585
0.553
0.5565
0.5585
0.5585
0.5515
0.542
0.5325
0.5235
0.5155
0.5095000000000001
0.5055000000000001
0.4995
0.499
0.4965
0.494
0.493
0.493
0.4925
0.4925
0.4935
0.4915
0.493
0.4925
0.494
0.4915
0.4935
0.493
0.4925
0.493
0.4925
0.493
0.4925
0.4935
0.493
0.493
0.4925
0.493
0.493
0.4935
0.4905
0.493
0.4925
0.4935
0.493
0.493
0.493
0.4935
0.493
0.4915
0.4925
0.493
0.492
0.4935
0.4935
0.4945
0.493
0.4935
0.4935
0.493
0.4935
0.4935
0.4935
0.493
0.4935
0.4935
0.494
0.494
0.4925
0.4935
0.4935
0.494
0.492
0.4895
0.489
0.488
0.4885
0.489
0.4895
0.4905
0.491
0.491
0.4905
0.492
0.492
0.4915
0.4915
0.4925
0.4915
0.4915
0.492
0.492
0.4925
0.4925
0.491
0.4925
0.493
0.493
0.492
0.4925
0.4925
0.492
0.492
0.4925
0.4925
0.4925
0.4915
0.4915
0.493
0.492
0.4925
0.493
0.4925
0.4925
0.4905
0.4935
0.4925
0.4895
0.4905
0.4895
0.4855
0.4855
0.485
0.4855
0.4865
0.487
0.4885
0.489
0.4905
0.491
0.4915
0.492
0.4915
0.492
0.493
0.4925
0.4925
0.4935
0.493
0.4935
0.493
0.4935
0.4935
0.4925
0.4925
0.4935
0.4915
0.492
0.4915
0.491
0.4895
0.489
0.488
0.487
0.489
0.4885
0.4895
0.4885
0.4975
0.523
0.5485
0.6145
0.789
0.9595
1.0325
1.0070000000000001
0.9185
0.8300000000000001
0.7565000000000001
0.6965
0.651
0.6215
0.6015
0.5855
0.5795
0.5795
0.5745
0.5625
0.55
0.5365
0.5235
0.513
0.5045000000000001
0.4995
0.496
0.491
0.489
0.4855
0.4865
0.4855
0.485
0.486
0.4855
0.485
0.4865
0.4865
0.4865
0.4875
0.4865
0.4855
0.4855
0.4855
0.486
0.485
0.4855
0.485
0.484
0.4855
0.486
0.4855
0.4855
0.4855
0.4835
0.485
0.485
0.4845
0.483
0.4835
0.483
0.483
0.484
0.4835
0.484
0.4825
0.483
0.484
0.4805
0.4815
0.4825
0.4825
0.4825
0.4845
0.4845
0.481
0.4825
0.483
0.4845
0.4835
0.4825
0.4825
0.4825
0.4845
0.4865
0.4855
0.483
0.4845
0.485
0.4835
0.4875
0.487
0.486
0.4865
0.487
0.4875
0.4875
0.489
0.4895
0.49
0.4895
0.49
0.49
0.491
0.491
0.4905
0.4915
0.4905
0.4915
0.491
0.488
0.4875
0.4895
0.4905
0.4865
0.488
0.488
0.4875
0.487
0.4865
0.4865
0.4855
0.4845
0.4825
0.4825
0.4835
0.4855
0.487
0.488
0.4885
0.4895
0.49
0.4915
0.4915
0.4915
0.491
0.4915
0.4915
0.4905
0.491
0.4905
0.4895
0.4895
0.488
0.487
0.486
0.4855
0.4855
0.486
0.4855
0.4855
0.488
0.4955
0.5105000000000001
0.5865
0.7515000000000001
0.9570000000000001
1.037
1.0125
0.933
0.8455
0.7715
0.7125
0.6675
0.639
0.634
0.647
0.6815
0.7255
0.7465
0.7355
0.7005
0.6595
0.6235
0.5915
0.5690000000000001
0.5495
0.535
0.5235
0.5145
0.507
0.502
0.4975
0.494
0.4925
0.4915
0.4895
0.4875
0.4885
0.4885
0.487
0.486
0.486
0.4865
0.486
0.4855
0.486
0.4865
0.486
0.4855
0.4845
0.485
0.4855
0.485
0.485
0.4855
0.4865
0.4855
0.4855
0.486
0.485
0.486
0.485
0.4855
0.4855
0.4865
0.4865
0.4855
0.4855
0.4865
0.4865
0.4865
0.486
0.486
0.487
0.4865
0.486
0.4865
0.487
0.487
0.486
0.487
0.487
0.486
0.487
0.4855
0.4875
0.4865
0.4865
0.4865
0.4855
0.4865
0.487
0.486
0.4855
0.485
0.484
0.4845
0.4855
0.486
0.4865
0.486
0.487
0.4865
0.487
0.487
0.487
0.4865
0.4865
0.4865
0.4865
0.4875
0.4855
0.4865
0.487
0.4865
0.4865
0.4855
0.4845
0.4825
0.4835
0.4815
0.481
0.4815
0.48
0.4815
0.4825
0.4845
0.4855
0.485
0.4845
0.4845
0.485
0.486
0.4865
0.4855
0.4855
0.4855
0.485
0.4875
0.487
0.484
0.485
0.4825
0.4865
0.4845
0.4855
0.4855
0.485
0.4835
0.484
0.4845
0.4845
0.483
0.4855
0.486
0.4865
0.485
0.4855
0.485
0.484
0.4835
0.483
0.4835
0.4835
0.4835
0.4825
0.483
0.4835
0.4835
0.4945
0.5875
0.666
0.7345
0.9635
1.235
1.237
1.0775000000000001
0.923
0.8075
0.717
0.6635
0.6445
0.6675
0.725
0.7705
0.7695
0.719
0.6555
0.607
0.5685
0.5475
0.527
0.4875
0.47600000000000003
0.47700000000000004
0.47400000000000003
0.47050000000000003
0.47250000000000003
0.47400000000000003
0.47350000000000003
0.47600000000000003
0.47600000000000003
0.47350000000000003
0.47350000000000003
0.47350000000000003
0.47350000000000003
0.47400000000000003
0.47450000000000003
0.47450000000000003
0.47500000000000003
0.47750000000000004
0.47600000000000003
0.47550000000000003
0.47750000000000004
0.47700000000000004
0.47800000000000004
0.47850000000000004
0.47900000000000004
0.47800000000000004
0.47900000000000004
0.47850000000000004
0.47900000000000004
0.47750000000000004
0.47900000000000004
0.47900000000000004
0.47950000000000004
0.47950000000000004
0.47900000000000004
0.48
0.48
0.48
0.48
0.4805
0.4805
0.4805
0.482
0.4815
0.4815
0.481
0.482
0.4815
0.4815
0.482
0.4815
0.481
0.4835
0.4825
0.4815
0.4815
0.481
0.481
0.4815
0.482
0.4825
0.4815
0.482
0.4815
0.4815
0.482
0.4815
0.482
0.4825
0.4815
0.4825
0.482
0.4815
0.482
0.4825
0.4825
0.4815
0.4825
0.4815
0.483
0.4825
0.4825
0.483
0.4825
0.483
0.4815
0.481
0.4815
0.4825
0.4815
0.482
0.482
0.482
0.4825
0.482
0.483
0.4825
0.4825
0.4825
0.482
0.481
0.47950000000000004
0.47800000000000004
0.47750000000000004
0.47850000000000004
0.47700000000000004
0.47850000000000004
0.4815
0.47900000000000004
0.4805
0.483
0.47900000000000004
0.47950000000000004
0.47950000000000004
0.47950000000000004
0.47950000000000004
0.48
0.48
0.4805
0.47950000000000004
0.47800000000000004
0.47750000000000004
0.47750000000000004
0.47700000000000004
0.47750000000000004
0.47700000000000004
0.47700000000000004
0.47800000000000004
0.5035000000000001
0.5695
0.646
0.757
0.9475
1.1115
1.1655
1.1175
1.0195
0.9205
0.775
0.727
0.6835
0.6565
0.6575
0.6955
0.7585000000000001
0.8115
0.8145
0.778
0.7255
0.6745
0.6315000000000001
0.5965
0.5695
0.5485
0.5335
0.5205
0.5085000000000001
0.4995
0.4945
0.4895
0.4865
0.483
0.482
0.48
0.47900000000000004
0.47850000000000004
0.47750000000000004
0.47650000000000003
0.47500000000000003
0.47550000000000003
0.47500000000000003
0.47550000000000003
0.47500000000000003
0.47300000000000003
0.47450000000000003
0.47400000000000003
0.47350000000000003
0.47300000000000003
0.47100000000000003
0.468
0.47350000000000003
0.46950000000000003
0.46900000000000003
0.46950000000000003
0.47000000000000003
0.47050000000000003
0.47000000000000003
0.47050000000000003
0.47150000000000003
0.47050000000000003
0.47250000000000003
0.47150000000000003
0.47300000000000003
0.47400000000000003
0.47400000000000003
0.47350000000000003
0.47350000000000003
0.47350000000000003
0.47300000000000003
0.47350000000000003
0.47400000000000003
0.47450000000000003
0.47450000000000003
0.47500000000000003
0.47450000000000003
0.47350000000000003
0.47450000000000003
0.47350000000000003
0.47350000000000003
0.47350000000000003
0.47400000000000003
0.47350000000000003
0.47350000000000003
0.47450000000000003
0.47500000000000003
0.47350000000000003
0.47500000000000003
0.47450000000000003
0.47350000000000003
0.47150000000000003
0.47050000000000003
0.46950000000000003
0.4685
0.47050000000000003
0.47100000000000003
0.47200000000000003
0.47250000000000003
0.47250000000000003
0.47400000000000003
0.47450000000000003
0.47450000000000003
0.47450000000000003
0.47450000000000003
0.47550000000000003
0.47450000000000003
0.47550000000000003
0.47650000000000003
0.47550000000000003
0.47500000000000003
0.47450000000000003
0.47650000000000003
0.47600000000000003
0.47600000000000003
0.47650000000000003
0.47550000000000003
0.47600000000000003
0.47750000000000004
0.47700000000000004
0.47650000000000003
0.47500000000000003
0.47650000000000003
0.47700000000000004
0.47550000000000003
0.47750000000000004
0.47550000000000003
0.47650000000000003
0.47700000000000004
0.47650000000000003
0.47750000000000004
0.47700000000000004
0.47700000000000004
0.47550000000000003
0.47550000000000003
0.47550000000000003
0.47450000000000003
0.47400000000000003
0.47650000000000003
0.47500000000000003
0.47500000000000003
0.47500000000000003
0.47600000000000003
0.47350000000000003
0.47500000000000003
0.47550000000000003
0.47500000000000003
0.47350000000000003
0.47250000000000003
0.47400000000000003
0.47200000000000003
0.46950000000000003
0.47100000000000003
0.47050000000000003
0.47050000000000003
0.47050000000000003
0.47150000000000003
0.47100000000000003
0.47150000000000003
0.47100000000000003
0.4895
0.5255
0.592
0.7855
1.0495
1.1895
1.1795
1.077
0.9595
0.8535
0.778
0.7245
0.6950000000000001
0.724
0.768
0.7845
0.759
0.6955
0.6435
0.599
0.5640000000000001
0.5365
0.522
0.5095000000000001
0.4975
0.4895
0.484
0.47700000000000004
0.47250000000000003
0.47150000000000003
0.47000000000000003
0.4685
0.4675
0.465
0.465
0.463
0.4655
0.4655
0.4685
0.4665
0.4655
0.467
0.466
0.4665
0.4645
0.4645
0.465
0.4675
0.4645
0.464
0.4655
0.4645
0.468
0.4665
0.4665
0.4685
0.468
0.46950000000000003
0.4685
0.46900000000000003
0.47050000000000003
0.47150000000000003
0.47150000000000003
0.47100000000000003
0.47250000000000003
0.47150000000000003
0.47150000000000003
0.47150000000000003
0.47150000000000003
0.47200000000000003
0.47200000000000003
0.47300000000000003
0.47250000000000003
0.47350000000000003
0.47350000000000003
0.47250000000000003
0.47350000000000003
0.47350000000000003
0.47300000000000003
0.47350000000000003
0.47350000000000003
0.47350000000000003
0.47350000000000003
0.47400000000000003
0.47350000000000003
0.47200000000000003
0.47250000000000003
0.47150000000000003
0.47300000000000003
0.47300000000000003
0.47350000000000003
0.47350000000000003
0.47350000000000003
0.47350000000000003
0.47350000000000003
0.47400000000000003
0.47400000000000003
0.47400000000000003
0.47450000000000003
0.47450000000000003
0.47400000000000003
0.47450000000000003
0.47450000000000003
0.47450000000000003
0.47500000000000003
0.47500000000000003
0.47450000000000003
0.47450000000000003
0.47450000000000003
0.47450000000000003
0.47500000000000003
0.47500000000000003
0.47500000000000003
0.47500000000000003
0.47500000000000003
0.47500000000000003
0.47550000000000003
0.47500000000000003
0.47550000000000003
0.47500000000000003
0.47550000000000003
0.47450000000000003
0.47500000000000003
0.47500000000000003
0.47550000000000003
0.47550000000000003
0.47550000000000003
0.47500000000000003
0.47550000000000003
0.47500000000000003
0.47400000000000003
0.47550000000000003
0.47500000000000003
0.47450000000000003
0.47550000000000003
0.47550000000000003
0.47550000000000003
0.47600000000000003
0.47450000000000003
0.47600000000000003
0.47300000000000003
0.47150000000000003
0.47250000000000003
0.47050000000000003
0.47150000000000003
0.47100000000000003
0.47250000000000003
0.47250000000000003
0.47400000000000003
0.4955
0.5495
0.631
0.8125
1.1135
1.3765
1.4875
1.4375
1.2975
1.1395
1.0065
0.8995
0.8135
0.7525000000000001
0.7355
0.768
0.8255
0.8835000000000001
0.8655
0.806
0.7415
0.683
0.6385000000000001
0.603
0.5755
0.5525
0.5335
0.5185
0.506
0.4945
0.4885
0.4835
0.47900000000000004
0.47550000000000003
0.47250000000000003
0.47150000000000003
0.47000000000000003
0.4675
0.4685
0.4675
0.4675
0.4665
0.466
0.466
0.4665
0.4655
0.4665
0.466
0.4665
0.4665
0.466
0.4655
0.467
0.4675
0.466
0.466
0.4665
0.467
0.4665
0.466
0.4665
0.467
0.4655
0.4655
0.4645
0.464
0.4625
0.462
0.462
0.4625
0.463
0.4645
0.4645
0.465
0.4655
0.4655
0.4655
0.4655
0.4655
0.465
0.4655
0.4675
0.4665
0.4665
0.4665
0.466
0.4665
0.4665
0.4665
0.465
0.4645
0.4645
0.4615
0.4615
0.4615
0.4615
0.461
0.4615
0.463
0.4635
0.464
0.4655
0.465
0.4655
0.467
0.466
0.4655
0.4655
0.4635
0.4625
0.462
0.464
0.4655
0.466
0.465
0.466
0.4665
0.466
0.467
0.4655
0.4675
0.4645
0.466
0.4655
0.4665
0.466
0.4665
0.4665
0.468
0.468
0.4675
0.467
0.4685
0.4685
0.4685
0.4675
0.4685
0.468
0.4675
0.4665
0.4675
0.46950000000000003
0.467
0.468
0.4655
0.4665
0.465
0.466
0.4685
0.47000000000000003
0.468
0.4685
0.467
0.4685
0.466
0.4645
0.463
0.4625
0.46
0.4575
0.4595
0.4605
0.4595
0.4655
0.5905
0.744
1.0645
1.3655
1.3985
1.2745
0.856
0.848
1.0095
0.9550000000000001
0.7345
0.6575
0.6135
0.58
0.552
0.53
0.511
0.4965
0.4835
0.47550000000000003
0.47000000000000003
0.465
0.463
0.458
0.4595
0.458
0.457
0.4585
0.4575
0.458
0.4575
0.4575
0.458
0.4585
0.459
0.459
0.4595
0.4595
0.4595
0.46
0.4605
0.4605
0.4605
0.4615
0.461
0.461
0.461
0.461
0.461
0.461
0.4615
0.4615
0.461
0.461
0.4605
0.461
0.4615
0.461
0.4615
0.4615
0.461
0.4615
0.4615
0.462
0.4615
0.462
0.462
0.462
0.4615
0.4625
0.462
0.462
0.4625
0.4615
0.4615
0.461
0.46
0.461
0.4615
0.4615
0.4615
0.461
0.462
0.462
0.4635
0.463
0.463
0.463
0.4625
0.463
0.463
0.4635
0.463
0.4635
0.4635
0.4635
0.463
0.463
0.463
0.463
0.4625
0.463
0.463
0.4635
0.464
0.4635
0.4645
0.4635
0.464
0.4645
0.4635
0.4645
0.464
0.465
0.4635
0.4655
0.466
0.465
0.4645
0.465
0.4655
0.465
0.4645
0.465
0.4645
0.4645
0.465
0.464
0.4645
0.465
0.4655
0.465
0.465
0.466
0.466
0.4655
0.466
0.4665
0.467
0.4665
0.465
0.465
0.4645
0.4645
0.4645
0.4645
0.4635
0.4635
0.4635
0.462
0.462
0.462
0.4635
0.4655
0.4655
0.467
0.47050000000000003
0.489
0.5405
0.6245
0.7485
0.9675
1.165
1.2275
1.1635
1.0515
0.9415
0.8505
0.7835
0.7265
0.679
0.655
0.687
0.7755
0.8875000000000001
0.9645
0.9625
0.9035
0.8235
0.7465
0.683
0.6145
0.5795
0.5525
0.5325
0.5155
0.501
0.49
0.4815
0.47550000000000003
0.47000000000000003
0.467
0.4635
0.4625
0.4595
0.459
0.4585
0.457
0.4565
0.4565
0.4555
0.4555
0.4545
0.455
0.455
0.4535
0.4545
0.4555
0.454
0.454
0.4565
0.455
0.4555
0.4555
0.4555
0.453
0.4555
0.456
0.455
0.454
0.4545
0.454
0.456
0.4555
0.456
0.456
0.4555
0.454
0.4545
0.4565
0.4545
0.4535
0.4565
0.4555
0.455
0.456
0.4555
0.455
0.4565
0.4565
0.4565
0.4575
0.457
0.4555
0.4555
0.4555
0.4555
0.4585
0.4575
0.4575
0.4575
0.455
0.4555
0.453
0.4545
0.4525
0.4555
0.4535
0.453
0.451
0.452
0.452
0.451
0.4545
0.4505
0.454
0.4525
0.4525
0.4535
0.455
0.4515
0.4555
0.4505
0.4515
0.4555
0.4565
0.4555
0.457
0.4575
0.4565
0.4575
0.457
0.457
0.4575
0.4575
0.4555
0.457
0.4595
0.4585
0.459
0.4585
0.459
0.46
0.461
0.461
0.4625
0.462
0.4615
0.4615
0.4605
0.461
0.4595
0.459
0.459
0.4595
0.461
0.461
0.4615
0.4615
0.462
0.46950000000000003
0.52
0.5895
0.7115
0.9145
1.067
1.1015
1.0435
0.9455
0.8525
0.7855
0.733
0.6865
0.6485
0.6265000000000001
0.622
0.6415
0.664
0.6695
0.652
0.6215
0.5885
0.5605
0.5385
0.5205
0.5065000000000001
0.495
0.485
0.47650000000000003
0.47050000000000003
0.4665
0.464
0.4625
0.4615
0.4605
0.4605
0.46
0.4595
0.4595
0.4595
0.459
0.4585
0.4595
0.4585
0.459
0.459
0.459
0.4585
0.459
0.4595
0.4595
0.459
0.4595
0.4595
0.4595
0.4605
0.4595
0.46
0.4595
0.4595
0.4595
0.459
0.4595
0.4605
0.4595
0.461
0.4595
0.459
0.457
0.458
0.4565
0.455
0.455
0.455
0.4555
0.457
0.4565
0.4565
0.4555
0.457
0.4575
0.459
0.4595
0.4595
0.4605
0.4605
0.459
0.4595
0.4585
0.46
0.4605
0.4595
0.46
0.4585
0.459
0.4605
0.4605
0.461
0.461
0.4625
0.4615
0.462
0.4615
0.463
0.4625
0.4625
0.463
0.463
0.463
0.4625
0.462
0.4635
0.463
0.463
0.4625
0.4635
0.4615
0.4615
0.46
0.46
0.4585
0.4575
0.4565
0.4555
0.456
0.4585
0.459
0.46
0.4615
0.462
0.4625
0.463
0.463
0.4635
0.4635
0.4635
0.4645
0.4635
0.464
0.4645
0.4635
0.4635
0.4645
0.464
0.4645
0.4635
0.465
0.4645
0.4635
0.4635
0.4635
0.4635
0.4635
0.4635
0.4635
0.463
0.4625
0.463
0.4595
0.46
0.4595
0.4595
0.458
0.459
0.459
0.4585
0.4585
0.4595
0.4635
0.498
0.5595
0.7035
0.9805
1.214
1.2905
1.231
1.1035
0.9695
0.8605
0.776
0.7115
0.662
0.6435
0.6635
0.7020000000000001
0.7275
0.713
0.6725
0.6295000000000001
0.5895
0.558
0.5365
0.5185
0.507
0.4965
0.4875
0.47950000000000004
0.47450000000000003
0.46900000000000003
0.464
0.4615
0.459
0.4565
0.4565
0.455
0.4575
0.4565
0.456
0.4565
0.4565
0.4555
0.455
0.4545
0.455
0.455
0.4555
0.453
0.453
0.452
0.451
0.4525
0.454
0.4575
0.4575
0.4555
0.454
0.454
0.4525
0.456
0.454
0.455
0.4565
0.4565
0.4555
0.4555
0.455
0.4575
0.455
0.4555
0.456
0.458
0.4555
0.457
0.457
0.4545
0.457
0.4575
0.4595
0.46
0.4595
0.4605
0.461
0.4615
0.4605
0.4615
0.462
0.462
0.4615
0.4625
0.463
0.4635
0.463
0.4625
0.464
0.4645
0.4635
0.4635
0.4635
0.4635
0.4635
0.4635
0.4645
0.4635
0.463
0.4635
0.463
0.463
0.4635
0.463
0.4635
0.464
0.4635
0.4635
0.4645
0.4645
0.4645
0.4655
0.465
0.4635
0.464
0.4645
0.465
0.4655
0.464
0.465
0.465
0.4655
0.4655
0.465
0.465
0.465
0.4645
0.465
0.465
0.465
0.4655
0.4655
0.4655
0.465
0.465
0.4645
0.4635
0.463
0.462
0.4615
0.4605
0.4605
0.462
0.462
0.4625
0.4635
0.47200000000000003
0.503
0.558
0.6865
0.934
1.1775
1.2825
1.2495
1.1375
1.0110000000000001
0.8975
0.8115
0.742
0.6855
0.681
0.734
0.8165
0.8755000000000001
0.8815000000000001
0.835
0.7705
0.7055
0.6515
0.6075
0.5715
0.5445
0.5215
0.506
0.494
0.4835
0.47650000000000003
0.47200000000000003
0.4675
0.465
0.4625
0.461
0.4595
0.4585
0.458
0.457
0.457
0.4565
0.457
0.456
0.458
0.457
0.4575
0.4575
0.4575
0.457
0.457
0.458
0.457
0.457
0.4575
0.458
0.4585
0.4575
0.4595
0.4585
0.459
0.4585
0.4595
0.4585
0.4585
0.4595
0.458
0.4585
0.459
0.459
0.458
0.459
0.459
0.4595
0.4595
0.459
0.459
0.459
0.4595
0.4595
0.4595
0.4585
0.4575
0.4575
0.458
0.4575
0.4585
0.458
0.4585
0.4595
0.4595
0.459
0.459
0.459
0.4595
0.4595
0.459
0.459
0.459
0.459
0.459
0.4595
0.459
0.459
0.46
0.459
0.4575
0.4585
0.4595
0.4575
0.459
0.4595
0.4595
0.458
0.4595
0.46
0.4595
0.459
0.4595
0.4595
0.4595
0.4595
0.4595
0.4595
0.459
0.4585
0.459
0.4595
0.4585
0.4595
0.4615
0.4605
0.4595
0.46
0.4595
0.4595
0.4595
0.4615
0.4615
0.4615
0.46
0.4605
0.4615
0.4595
0.4605
0.461
0.4615
0.461
0.4585
0.4585
0.458
0.456
0.459
0.4575
0.4595
0.4555
0.4535
0.457
0.4545
0.454
0.4525
0.452
0.4535
0.4545
0.456
0.4915
0.5925
0.865
1.147
1.2715
1.2315
1.1105
0.9795
0.8565
0.7585000000000001
0.6955
0.6595
0.7165
0.8625
1.0795000000000001
0.6805
0.5760000000000001
0.5355
0.5115000000000001
0.492
0.4805
0.47150000000000003
0.4635
0.4585
0.454
0.4495
0.4515
0.4495
0.447
0.4455
0.4455
0.446
0.4475
0.4475
0.449
0.4505
0.449
0.4495
0.451
0.4515
0.452
0.453
0.4535
0.4535
0.4545
0.4535
0.4545
0.4545
0.4545
0.4545
0.4545
0.4555
0.4545
0.4545
0.4545
0.4545
0.4555
0.455
0.4545
0.455
0.455
0.4555
0.4555
0.455
0.4555
0.456
0.455
0.4565
0.456
0.4555
0.456
0.4555
0.455
0.454
0.453
0.4535
0.453
0.4535
0.4545
0.4545
0.4555
0.4555
0.4555
0.4555
0.4555
0.4555
0.4575
0.4565
0.4565
0.457
0.456
0.457
0.4565
0.4565
0.458
0.457
0.457
0.457
0.4575
0.457
0.457
0.4575
0.4575
0.458
0.4585
0.4575
0.458
0.4575
0.4585
0.458
0.4585
0.459
0.458
0.458
0.457
0.456
0.4555
0.4565
0.4565
0.457
0.4575
0.4585
0.458
0.4585
0.458
0.4585
0.459
0.4585
0.4595
0.4595
0.4595
0.459
0.4585
0.4595
0.4595
0.4595
0.4595
0.4595
0.4605
0.4595
0.459
0.46
0.4585
0.4585
0.458
0.4595
0.458
0.4575
0.4575
0.4575
0.4575
0.4585
0.4575
0.459
0.459
0.4645
0.5215
0.6105
0.7175
0.9055
1.1295
1.2515
1.2415
1.1415
1.002
0.895
0.8140000000000001
0.7445
0.6915
0.6475
0.6265000000000001
0.6645
0.7415
0.7995
0.8075
0.769
0.7135
0.658
0.6125
0.5750000000000001
0.5465
0.5245
0.5085000000000001
0.4955
0.4845
0.47550000000000003
0.47050000000000003
0.4655
0.4625
0.4595
0.4575
0.456
0.4555
0.455
0.454
0.453
0.4525
0.452
0.4515
0.4515
0.449
0.4505
0.449
0.4465
0.4455
0.4465
0.4465
0.4475
0.448
0.4485
0.4505
0.45
0.4505
0.4505
0.4505
0.4505
0.451
0.4515
0.451
0.4515
0.4515
0.4535
0.452
0.4525
0.4515
0.4515
0.451
0.4525
0.4505
0.4515
0.45
0.4525
0.451
0.4525
0.4525
0.452
0.4515
0.453
0.4525
0.4525
0.4515
0.4545
0.4525
0.452
0.452
0.452
0.4525
0.4515
0.4505
0.4495
0.4515
0.453
0.4545
0.455
0.4545
0.4525
0.4515
0.4535
0.455
0.453
0.454
0.4535
0.45
0.4515
0.4525
0.451
0.4515
0.4515
0.4535
0.454
0.451
0.455
0.4525
0.454
0.453
0.454
0.4515
0.4515
0.4525
0.452
0.452
0.4515
0.451
0.454
0.4555
0.4525
0.4565
0.4555
0.4535
0.455
0.453
0.452
0.455
0.4545
0.4555
0.4545
0.4545
0.4545
0.454
0.4545
0.453
0.4525
0.453
0.4525
0.4535
0.454
0.454
0.4565
0.47150000000000003
0.5515
0.651
0.8465
1.194
1.2590000000000001
1.1925000000000001
1.069
0.9575
0.8715
0.8075
0.7575000000000001
0.715
0.6885
0.6815
0.71
0.7755
0.8145
0.8055
0.759
0.7030000000000001
0.6475
0.606
0.5715
0.5455
0.5255
0.5085000000000001
0.4955
0.4845
0.47650000000000003
0.47000000000000003
0.466
0.4625
0.46
0.458
0.4565
0.4565
0.4535
0.455
0.454
0.4535
0.4525
0.4535
0.453
0.453
0.4525
0.453
0.451
0.4525
0.453
0.45
0.4495
0.449
0.4485
0.4465
0.4455
0.4465
0.448
0.4485
0.45
0.451
0.4515
0.452
0.4525
0.4525
0.4535
0.453
0.4535
0.4545
0.455
0.454
0.455
0.4545
0.4545
0.4535
0.453
0.4525
0.4515
0.45
0.4505
0.45
0.4475
0.4505
0.4475
0.449
0.4495
0.4525
0.447
0.449
0.45
0.4505
0.45
0.45
0.4515
0.4525
0.4535
0.453
0.4545
0.4555
0.455
0.4555
0.4545
0.4555
0.4555
0.4565
0.457
0.4555
0.4565
0.4575
0.457
0.4565
0.4575
0.4565
0.457
0.458
0.4575
0.457
0.457
0.458
0.4585
0.4575
0.458
0.458
0.458
0.458
0.4575
0.459
0.4585
0.459
0.4585
0.458
0.459
0.4585
0.458
0.4595
0.459
0.459
0.459
0.459
0.4585
0.4585
0.4595
0.459
0.459
0.459
0.459
0.46
0.459
0.4595
0.46
0.46
0.4595
0.4605
0.459
0.4595
0.459
0.458
0.458
0.4565
0.4565
0.4555
0.4545
0.455
0.455
0.4545
0.4545
0.4545
0.455
0.4555
0.47150000000000003
0.5435
0.648
0.8855000000000001
1.1460000000000001
1.2535
1.2095
1.027
0.9055
0.8065
0.737
0.6900000000000001
0.6695
0.6955
0.7635000000000001
0.8335
0.8605
0.837
0.7805
0.716
0.6605
0.616
0.5805
0.5545
0.5315
0.5125
0.4995
0.489
0.47700000000000004
0.47100000000000003
0.4655
0.463
0.458
0.4565
0.4545
0.4535
0.453
0.4545
0.45
0.4485
0.4505
0.4475
0.4455
0.4485
0.449
0.4475
0.448
0.446
0.4475
0.4465
0.445
0.4425
0.4455
0.445
0.4425
0.4465
0.4495
0.4495
0.449
0.4505
0.449
0.449
0.4455
0.4455
0.4495
0.4465
0.4465
0.447
0.4455
0.4515
0.451
0.4495
0.4495
0.4485
0.4515
0.4505
0.4485
0.4515
0.451
0.4495
0.4495
0.4505
0.4515
0.4525
0.453
0.454
0.454
0.455
0.4555
0.4555
0.456
0.456
0.4565
0.4565
0.4565
0.4565
0.457
0.4575
0.4575
0.458
0.458
0.457
0.4575
0.4575
0.458
0.458
0.457
0.4575
0.458
0.4585
0.4575
0.4585
0.458
0.458
0.4585
0.4575
0.4585
0.4585
0.4575
0.4585
0.458
0.4575
0.4575
0.4595
0.4585
0.4585
0.458
0.4585
0.4595
0.4585
0.459
0.4595
0.459
0.459
0.4585
0.4585
0.459
0.459
0.4595
0.4585
0.457
0.457
0.4565
0.455
0.455
0.455
0.4555
0.4575
0.457
0.4575
0.4615
0.47550000000000003
0.5175
0.5645
0.7000000000000001
0.9505
1.1245
1.17
1.1185
1.0195
0.9185
0.8355
0.7635000000000001
0.7105
0.6805
0.6995
0.795
0.8985
0.961
0.9515
0.8905000000000001
0.8075
0.733
0.671
0.6225
0.586
0.5565
0.5345
0.5155
0.4995
0.4885
0.47950000000000004
0.47350000000000003
0.4675
0.4635
0.4605
0.458
0.4565
0.4545
0.454
0.4535
0.4535
0.4515
0.4535
0.4525
0.4515
0.452
0.4515
0.4515
0.452
0.4515
0.4515
0.4525
0.4515
0.452
0.4525
0.453
0.4515
0.452
0.4525
0.4525
0.452
0.4505
0.452
0.4515
0.4515
0.4505
0.4505
0.449
0.4505
0.4505
0.4505
0.451
0.4515
0.4515
0.4515
0.4515
0.4525
0.4525
0.453
0.454
0.4535
0.4535
0.454
0.4535
0.4535
0.4535
0.4535
0.454
0.4545
0.454
0.4545
0.4545
0.4545
0.4555
0.455
0.455
0.455
0.454
0.455
0.455
0.455
0.453
0.4525
0.452
0.4525
0.4525
0.454
0.4545
0.4535
0.4535
0.454
0.4545
0.4545
0.4555
0.4545
0.454
0.4545
0.4555
0.454
0.4555
0.4545
0.4555
0.455
0.4545
0.4545
0.4545
0.4555
0.456
0.4535
0.4535
0.4545
0.454
0.4535
0.4535
0.454
0.4555
0.4545
0.4545
0.4565
0.4545
0.4555
0.455
0.4565
0.4555
0.4545
0.4545
0.4535
0.454
0.4535
0.4535
0.4525
0.453
0.454
0.4555
0.4535
0.4565
0.455
0.455
0.454
0.4515
0.4535
0.454
0.4505
0.4495
0.4505
0.449
0.463
0.536
0.9265
1.2195
1.3375000000000001
1.2725
1.1340000000000001
1.0215
0.9390000000000001
0.859
0.7875
0.7675000000000001
1.024
1.2245
1.2165
1.0985
0.963
0.841
0.7515000000000001
0.5645
0.483
0.464
0.4515
0.45
0.4455
0.445
0.4415
0.443
0.4435
0.441
0.4425
0.441
0.439
0.438
0.4395
0.4425
0.442
0.443
0.442
0.443
0.4435
0.444
0.4445
0.444
0.4455
0.445
0.445
0.4455
0.446
0.4455
0.4465
0.4465
0.4475
0.4455
0.4475
0.4475
0.446
0.4465
0.4465
0.4455
0.445
0.4465
0.4465
0.447
0.4475
0.447
0.4485
0.448
0.4485
0.448
0.449
0.4495
0.449
0.4485
0.448
0.4465
0.4465
0.4475
0.4475
0.448
0.4485
0.449
0.4495
0.45
0.4495
0.4495
0.4505
0.451
0.451
0.45
0.449
0.448
0.4465
0.448
0.4485
0.449
0.449
0.4505
0.4505
0.4505
0.451
0.4505
0.451
0.4525
0.4515
0.451
0.4525
0.4525
0.452
0.453
0.4515
0.452
0.4525
0.453
0.4525
0.45
0.4495
0.4475
0.447
0.4465
0.448
0.449
0.45
0.4505
0.4515
0.452
0.4515
0.453
0.4535
0.4525
0.453
0.4535
0.453
0.453
0.4525
0.4525
0.453
0.4535
0.454
0.4535
0.4535
0.454
0.4535
0.453
0.4525
0.452
0.4515
0.451
0.4515
0.451
0.4515
0.452
0.4525
0.452
0.453
0.47050000000000003
0.5255
0.6315000000000001
0.7915
1.041
1.2315
1.2815
1.213
1.09
0.9755
0.911
0.8715
0.8250000000000001
0.7705
0.7205
0.6865
0.6875
0.7285
0.7605000000000001
0.7445
0.6995
0.6505
0.6055
0.5700000000000001
0.541
0.5205
0.505
0.4925
0.4815
0.47300000000000003
0.466
0.461
0.4575
0.455
0.453
0.451
0.45
0.4495
0.449
0.4485
0.4465
0.4475
0.4475
0.4495
0.4475
0.447
0.4465
0.4455
0.446
0.446
0.446
0.4465
0.4465
0.446
0.445
0.4445
0.445
0.4445
0.4445
0.4455
0.4465
0.4445
0.4465
0.4465
0.4455
0.4455
0.444
0.4445
0.444
0.445
0.4465
0.446
0.4455
0.447
0.446
0.4455
0.447
0.446
0.446
0.443
0.443
0.4455
0.4455
0.4455
0.4455
0.4445
0.4435
0.4425
0.443
0.4435
0.4435
0.443
0.442
0.442
0.4435
0.4445
0.4455
0.4465
0.4465
0.447
0.448
0.4485
0.449
0.4505
0.449
0.45
0.4505
0.4495
0.449
0.449
0.4485
0.4505
0.449
0.449
0.4485
0.4485
0.449
0.4485
0.45
0.45
0.45
0.4505
0.4505
0.4505
0.4505
0.4515
0.451
0.452
0.4515
0.452
0.4515
0.452
0.451
0.452
0.452
0.4505
0.4515
0.4515
0.4505
0.4515
0.4505
0.4505
0.451
0.452
0.4515
0.4515
0.4515
0.453
0.4515
0.451
0.4505
0.4505
0.4485
0.4505
0.45
0.4495
0.448
0.447
0.445
0.4455
0.446
0.445
0.4435
0.445
0.445
0.4455
0.4455
0.4455
0.4485
0.4535
0.4955
0.6155
0.7625000000000001
1.0110000000000001
1.163
1.1545
1.0555
0.9395
0.851
0.7875
0.747
0.7115
0.6925
0.7065
0.76
0.8435
0.882
0.8425
0.7655000000000001
0.639
0.5725
0.5355
0.5115000000000001
0.4885
0.47750000000000004
0.4665
0.4595
0.4535
0.451
0.449
0.4445
0.4455
0.443
0.444
0.4425
0.4415
0.4405
0.4425
0.4385
0.4415
0.4405
0.4425
0.4425
0.4435
0.44
0.4425
0.4435
0.4425
0.444
0.4435
0.4435
0.443
0.4445
0.444
0.4445
0.445
0.445
0.447
0.447
0.4475
0.449
0.4505
0.449
0.4485
0.448
0.449
0.4485
0.451
0.449
0.448
0.4485
0.4475
0.4465
0.4465
0.4475
0.449
0.4485
0.449
0.449
0.451
0.451
0.451
0.447
0.4495
0.447
0.453
0.4455
0.447
0.447
0.447
0.4465
0.447
0.446
0.4465
0.4455
0.445
0.445
0.446
0.448
0.449
0.45
0.4505
0.4515
0.4525
0.4525
0.454
0.453
0.4525
0.4535
0.4535
0.4535
0.454
0.454
0.4535
0.454
0.4535
0.455
0.4535
0.4535
0.4535
0.453
0.4535
0.4535
0.4535
0.4535
0.4535
0.4545
0.4555
0.455
0.4545
0.4545
0.454
0.4545
0.455
0.455
0.4545
0.4535
0.453
0.453
0.452
0.451
0.4515
0.451
0.4515
0.45
0.45
0.45
0.45
0.451
0.451
0.453
0.4655
0.4905
0.5475
0.7085
0.9595
1.1555
1.211
1.1500000000000001
1.002
0.8885000000000001
0.7935
0.7255
0.6905
0.7075
0.783
0.8785000000000001
0.9495
0.967
0.9285
0.8575
0.7795
0.7105
0.6615
0.6275000000000001
0.597
0.5710000000000001
0.538
0.5175
0.5015000000000001
0.4885
0.47800000000000004
0.47100000000000003
0.465
0.4605
0.4565
0.454
0.4515
0.45
0.449
0.4485
0.4485
0.448
0.4485
0.4475
0.4475
0.4475
0.447
0.448
0.4475
0.4475
0.4475
0.448
0.4475
0.4475
0.447
0.447
0.4475
0.4475
0.4485
0.4475
0.448
0.448
0.4485
0.448
0.448
0.448
0.448
0.4485
0.449
0.4485
0.448
0.4475
0.4465
0.448
0.445
0.444
0.4435
0.4425
0.4425
0.442
0.4425
0.444
0.4455
0.4455
0.4465
0.4485
0.4485
0.4455
0.4465
0.4465
0.444
0.4435
0.4445
0.4455
0.445
0.4445
0.4465
0.4485
0.4465
0.4485
0.447
0.4465
0.449
0.4485
0.4485
0.4475
0.448
0.4485
0.4495
0.4495
0.4495
0.4505
0.4485
0.449
0.4485
0.4485
0.447
0.449
0.448
0.4485
0.45
0.449
0.45
0.451
0.449
0.4515
0.4495
0.449
0.4495
0.4505
0.45
0.451
0.4505
0.4495
0.4525
0.4525
0.4535
0.4525
0.4505
0.4495
0.4475
0.4495
0.4495
0.4485
0.449
0.4455
0.4505
0.45
0.45
0.4495
0.4475
0.447
0.45
0.4465
0.4475
0.4485
0.4445
0.4485
0.5245
0.7835
1.0295
1.1785
1.179
1.0785
0.9500000000000001
0.836
0.761
0.7045
0.6985
0.789
0.9435
1.0795000000000001
1.095
1.0155
0.906
0.8045
0.7225
0.6585
0.613
0.5775
0.5495
0.526
0.5075000000000001
0.486
0.47550000000000003
0.46900000000000003
0.464
0.458
0.4555
0.452
0.4505
0.4495
0.4495
0.4485
0.447
0.4475
0.447
0.446
0.446
0.4465
0.4465
0.4455
0.445
0.4475
0.4465
0.4465
0.446
0.4465
0.446
0.4455
0.4465
0.4465
0.446
0.4465
0.4465
0.4475
0.4465
0.4465
0.447
0.4465
0.447
0.4465
0.4475
0.448
0.4465
0.447
0.447
0.4485
0.4475
0.4475
0.4475
0.4465
0.443
0.443
0.4435
0.446
0.4465
0.4465
0.447
0.447
0.447
0.449
0.4485
0.4475
0.4475
0.448
0.4475
0.448
0.447
0.448
0.4485
0.45
0.4475
0.4485
0.4495
0.4485
0.4495
0.45
0.45
0.4495
0.45
0.4505
0.4515
0.451
0.451
0.451
0.452
0.451
0.4515
0.4515
0.4525
0.4515
0.451
0.4505
0.451
0.4515
0.4505
0.4515
0.451
0.4515
0.4525
0.4535
0.4525
0.4525
0.4535
0.4525
0.4525
0.4535
0.4525
0.453
0.4525
0.452
0.4535
0.4535
0.4535
0.4535
0.453
0.453
0.453
0.453
0.453
0.4525
0.4535
0.4535
0.4535
0.4535
0.4535
0.4535
0.4545
0.454
0.454
0.454
0.4535
0.4525
0.4515
0.4505
0.4495
0.4485
0.4475
0.4475
0.4475
0.4465
0.448
0.4515
0.4655
0.4995
0.5645
0.705
0.8945000000000001
1.0130000000000001
1.014
0.9415
0.853
0.7835
0.7315
0.6855
0.6465
0.6225
0.639
0.6960000000000001
0.777
0.8405
0.855
0.8085
0.7495
0.6825
0.6235
0.581
0.5535
0.5285
0.509
0.494
0.4815
0.47250000000000003
0.4645
0.46
0.453
0.451
0.4495
0.448
0.448
0.4465
0.4475
0.447
0.447
0.4465
0.447
0.4465
0.4455
0.4465
0.4465
0.447
0.447
0.4455
0.4445
0.445
0.445
0.4455
0.4455
0.4465
0.4455
0.448
0.447
0.448
0.446
0.446
0.445
0.4445
0.4435
0.444
0.4435
0.4435
0.443
0.443
0.443
0.4425
0.4435
0.443
0.4455
0.4475
0.447
0.4465
0.447
0.4465
0.446
0.4475
0.4515
0.445
0.4495
0.4475
0.4475
0.447
0.446
0.446
0.445
0.4455
0.4455
0.447
0.447
0.4455
0.4465
0.4455
0.448
0.4455
0.4485
0.4405
0.4465
0.444
0.45
0.4485
0.444
0.4485
0.4465
0.447
0.447
0.4495
0.4485
0.4495
0.449
0.4515
0.4505
0.451
0.4475
0.4485
0.4505
0.449
0.45
0.4515
0.4525
0.4525
0.454
0.4535
0.453
0.4545
0.4555
0.4555
0.4555
0.456
0.456
0.4555
0.4565
0.457
0.4565
0.4555
0.4565
0.455
0.4545
0.4555
0.454
0.455
0.455
0.4555
0.4565
0.457
0.459
0.47400000000000003
0.5305
0.614
0.7825
1.0265
1.214
1.2565
1.1855
1.0655000000000001
0.9435
0.8555
0.7955
0.7475
0.7030000000000001
0.671
0.6645
0.6895
0.74
0.7805
0.7795
0.7425
0.6895
0.639
0.5995
0.5660000000000001
0.5395
0.519
0.5045000000000001
0.49
0.481
0.47250000000000003
0.467
0.4625
0.4595
0.457
0.455
0.453
0.4525
0.4525
0.4515
0.4505
0.451
0.45
0.45
0.4505
0.4495
0.451
0.45
0.4495
0.45
0.4505
0.4495
0.45
0.4505
0.4495
0.4505
0.4515
0.451
0.4515
0.4515
0.451
0.4515
0.451
0.451
0.451
0.451
0.451
0.4505
0.4515
0.4525
0.4515
0.4515
0.4515
0.4515
0.4515
0.452
0.451
0.4515
0.452
0.4525
0.4515
0.4525
0.452
0.452
0.4505
0.449
0.4495
0.4495
0.4495
0.451
0.4525
0.4525
0.4535
0.453
0.4535
0.4535
0.453
0.4535
0.4535
0.4525
0.4525
0.4545
0.4535
0.4535
0.4535
0.454
0.454
0.4535
0.455
0.4545
0.453
0.453
0.4535
0.452
0.449
0.4515
0.452
0.453
0.452
0.4535
0.4535
0.454
0.4545
0.4545
0.455
0.454
0.454
0.455
0.455
0.454
0.4545
0.455
0.4555
0.455
0.4555
0.455
0.4555
0.456
0.4555
0.455
0.4555
0.4555
0.4545
0.455
0.4555
0.4555
0.4555
0.4555
0.456
0.456
0.455
0.4555
0.455
0.455
0.4555
0.4545
0.455
0.4555
0.454
0.4545
0.452
0.4525
0.451
0.4495
0.449
0.4485
0.45
0.4495
0.449
0.4495
0.4525
0.468
0.5045000000000001
0.6425
0.871
1.0985
1.206
1.1795
1.0755000000000001
0.9505
0.8565
0.8025
0.7635000000000001
0.7335
0.7135
0.722
0.7505000000000001
0.7935
0.807
0.78
0.731
0.677
0.6295000000000001
0.586
0.556
0.53
0.5115000000000001
0.498
0.482
0.47150000000000003
0.4665
0.4615
0.4555
0.4545
0.4525
0.451
0.448
0.4495
0.4465
0.4465
0.4425
0.442
0.4415
0.4455
0.4445
0.4445
0.4465
0.446
0.4475
0.4455
0.443
0.4445
0.445
0.442
0.4405
0.444
0.4435
0.4435
0.441
0.444
0.447
0.4475
0.4455
0.4465
0.4465
0.447
0.449
0.4495
0.4495
0.449
0.45
0.4495
0.45
0.4505
0.4505
0.45
0.4495
0.4505
0.451
0.451
0.452
0.4525
0.4535
0.454
0.455
0.4535
0.4545
0.454
0.4545
0.4545
0.454
0.4545
0.455
0.4545
0.456
0.4565
0.455
0.4565
0.4525
0.4545
0.4525
0.4495
0.4525
0.4505
0.45
0.4515
0.451
0.4495
0.4515
0.4515
0.4515
0.454
0.4545
0.454
0.4545
0.4545
0.4545
0.4555
0.4555
0.4565
0.4565
0.456
0.457
0.457
0.4565
0.457
0.457
0.4575
0.4575
0.458
0.4575
0.4585
0.458
0.4585
0.458
0.458
0.4585
0.4585
0.4595
0.4575
0.458
0.458
0.4575
0.457
0.4555
0.4555
0.4555
0.4545
0.4535
0.455
0.4545
0.4545
0.454
0.4545
0.4565
0.4605
0.47150000000000003
0.6295000000000001
0.934
1.1835
1.2755
1.2275
1.111
0.983
0.871
0.7845
0.7185
0.6855
0.685
0.7215
0.7825
0.8255
0.8230000000000001
0.7775
0.7195
0.665
0.6195
0.5775
0.55
0.5305
0.5125
0.4985
0.4875
0.47700000000000004
0.46950000000000003
0.4655
0.4615
0.4585
0.4565
0.4545
0.4545
0.4535
0.453
0.4535
0.453
0.4525
0.4525
0.453
0.452
0.4525
0.4525
0.4505
0.45
0.4495
0.447
0.4455
0.4455
0.4465
0.4455
0.4445
0.445
0.4445
0.445
0.446
0.448
0.448
0.449
0.45
0.451
0.452
0.4515
0.4535
0.453
0.4525
0.4525
0.4525
0.4525
0.452
0.4515
0.453
0.4535
0.453
0.4545
0.454
0.4535
0.4535
0.454
0.4545
0.4535
0.4535
0.4535
0.4535
0.453
0.453
0.453
0.4515
0.4515
0.4515
0.4535
0.4525
0.4525
0.4525
0.4525
0.453
0.4525
0.4515
0.4515
0.4535
0.453
0.453
0.4525
0.453
0.453
0.4545
0.4525
0.4545
0.4535
0.4525
0.4525
0.453
0.4525
0.45
0.45
0.4505
0.4515
0.4515
0.4525
0.4515
0.4525
0.453
0.4525
0.4515
0.4515
0.454
0.451
0.454
0.4515
0.4515
0.452
0.452
0.4525
0.4535
0.4515
0.4525
0.4535
0.454
0.453
0.456
0.454
0.4545
0.4535
0.455
0.4555
0.4555
0.4535
0.4565
0.456
0.454
0.4535
0.4545
0.451
0.45
0.4505
0.4495
0.449
0.45
0.453
0.4545
0.4585
0.4995
0.5775
1.0285
1.3945
0.856
0.7685
0.9425
1.0955
1.1435
1.0865
0.9715
0.8290000000000001
0.727
0.6525
0.601
0.5625
0.531
0.507
0.4875
0.47900000000000004
0.46950000000000003
0.463
0.4565
0.455
0.452
0.4505
0.4495
0.448
0.447
0.447
0.447
0.4475
0.4465
0.447
0.447
0.447
0.4465
0.446
0.4455
0.445
0.445
0.4455
0.446
0.4455
0.4455
0.446
0.447
0.447
0.4465
0.4465
0.447
0.447
0.4475
0.4475
0.447
0.4465
0.447
0.447
0.4465
0.448
0.447
0.4475
0.448
0.4485
0.448
0.448
0.448
0.4475
0.448
0.4475
0.448
0.4485
0.4485
0.448
0.449
0.449
0.4485
0.449
0.449
0.4495
0.449
0.4475
0.4465
0.446
0.4485
0.4475
0.449
0.449
0.4495
0.45
0.4495
0.45
0.4495
0.4495
0.45
0.4495
0.4505
0.45
0.45
0.451
0.451
0.4505
0.4505
0.451
0.451
0.451
0.451
0.4515
0.4515
0.4515
0.4515
0.4515
0.4515
0.453
0.4525
0.452
0.452
0.4515
0.4515
0.4525
0.4525
0.452
0.449
0.449
0.4495
0.449
0.4495
0.4495
0.45
0.4515
0.451
0.4515
0.4525
0.4525
0.4535
0.4515
0.4525
0.453
0.4525
0.453
0.4525
0.453
0.4535
0.454
0.4535
0.453
0.454
0.452
0.4515
0.451
0.4495
0.45
0.4495
0.4475
0.4475
0.448
0.448
0.4485
0.4545
0.5085000000000001
0.607
0.774
1.0435
1.2690000000000001
1.3415000000000001
1.2205
1.079
0.961
0.8785000000000001
0.8085
0.747
0.6980000000000001
0.669
0.6795
0.7585000000000001
0.8555
0.8925000000000001
0.865
0.8015
0.732
0.672
0.626
0.5905
0.5635
0.5435
0.5245
0.5085000000000001
0.495
0.4825
0.47400000000000003
0.4665
0.46
0.4545
0.45
0.449
0.4485
0.4435
0.441
0.4435
0.4395
0.437
0.4365
0.4355
0.435
0.4355
0.4345
0.4355
0.437
0.4375
0.439
0.44
0.4395
0.4415
0.4415
0.442
0.4415
0.4425
0.442
0.4425
0.443
0.4435
0.443
0.442
0.4425
0.4415
0.443
0.4425
0.4435
0.4435
0.4435
0.443
0.443
0.443
0.4435
0.4445
0.442
0.444
0.4445
0.4445
0.4455
0.4445
0.445
0.4445
0.4445
0.4445
0.4455
0.4435
0.4445
0.4425
0.4475
0.446
0.4445
0.445
0.4435
0.4455
0.443
0.4425
0.4425
0.4425
0.4425
0.443
0.4445
0.4445
0.4435
0.444
0.444
0.4475
0.447
0.4455
0.4455
0.447
0.4445
0.4425
0.4445
0.4465
0.444
0.4435
0.4435
0.4425
0.4445
0.447
0.446
0.4465
0.4455
0.4445
0.4435
0.4445
0.445
0.4435
0.446
0.4465
0.447
0.4455
0.4485
0.4495
0.449
0.449
0.449
0.449
0.4495
0.4495
0.4505
0.45
0.4525
0.455
0.4555
0.456
0.4565
0.4675
0.51
0.5755
0.6625
0.885
1.0735000000000001
1.1505
1.1065
1.0045
0.8955000000000001
0.801
0.7035
0.6565
0.6195
0.593
0.5865
0.6275000000000001
0.6930000000000001
0.725
0.7145
0.6775
0.6315000000000001
0.5895
0.5565
0.5315
0.5125
0.4985
0.487
0.47850000000000004
0.47050000000000003
0.4655
0.4595
0.457
0.455
0.453
0.4525
0.451
0.45
0.4515
0.45
0.449
0.449
0.4495
0.4495
0.4495
0.4495
0.449
0.4495
0.4485
0.45
0.4485
0.449
0.449
0.449
0.4495
0.449
0.4495
0.448
0.448
0.4475
0.4495
0.449
0.4485
0.45
0.4495
0.4495
0.4495
0.4495
0.4495
0.4505
0.45
0.45
0.4505
0.4495
0.4505
0.451
0.451
0.4515
0.451
0.4515
0.4515
0.4515
0.4505
0.45
0.4515
0.4515
0.451
0.4505
0.451
0.4515
0.4515
0.4515
0.451
0.4495
0.4495
0.45
0.45
0.4505
0.451
0.4515
0.4515
0.452
0.4505
0.4495
0.4475
0.446
0.4465
0.4465
0.4475
0.449
0.45
0.45
0.4515
0.4515
0.453
0.4525
0.4525
0.453
0.4535
0.4535
0.454
0.4535
0.4545
0.4535
0.4535
0.4535
0.4545
0.4535
0.454
0.4545
0.4545
0.454
0.4545
0.4535
0.455
0.4545
0.4545
0.4545
0.455
0.455
0.4545
0.456
0.4555
0.4555
0.4555
0.454
0.453
0.4505
0.4525
0.453
0.4525
0.4525
0.4505
0.4525
0.453
0.452
0.453
0.453
0.4535
0.4535
0.453
0.4525
0.451
0.4505
0.452
0.4495
0.449
0.4495
0.45
0.4495
0.449
0.4525
0.47150000000000003
0.5315
0.6645
0.9715
1.1875
1.2590000000000001
1.185
1.061
0.937
0.842
0.772
0.715
0.6835
0.6755
0.6935
0.7365
0.7765
0.7805
0.7465
0.6955
0.645
0.603
0.5705
0.5435
0.521
0.502
0.4895
0.47900000000000004
0.46950000000000003
0.4635
0.4605
0.456
0.4535
0.451
0.4475
0.4495
0.449
0.4475
0.4455
0.4435
0.4435
0.4445
0.445
0.441
0.445
0.4445
0.4445
0.443
0.4445
0.4455
0.4435
0.445
0.4435
0.446
0.4455
0.4445
0.444
0.444
0.4435
0.4465
0.442
0.445
0.4455
0.446
0.4455
0.444
0.4465
0.4465
0.447
0.4455
0.4465
0.4465
0.4475
0.447
0.444
0.4475
0.4475
0.4455
0.4455
0.447
0.4465
0.449
0.4495
0.4505
0.4515
0.4515
0.451
0.4525
0.4515
0.4525
0.4535
0.453
0.4535
0.454
0.4545
0.4535
0.4535
0.455
0.4545
0.4535
0.455
0.4545
0.4555
0.455
0.455
0.455
0.455
0.455
0.4545
0.4535
0.4525
0.4545
0.4525
0.453
0.4525
0.453
0.451
0.453
0.451
0.4515
0.4515
0.4515
0.454
0.454
0.4535
0.455
0.4545
0.4555
0.4555
0.4555
0.456
0.4555
0.4565
0.457
0.4555
0.455
0.4555
0.4565
0.456
0.4555
0.455
0.455
0.455
0.4535
0.4535
0.4535
0.4535
0.4535
0.454
0.4555
0.455
0.456
0.461
0.47400000000000003
0.492
0.5295
0.787
1.0230000000000001
1.1455
1.131
1.0415
0.935
0.839
0.758
0.6950000000000001
0.6435
0.621
0.6475
0.7515000000000001
0.8965
0.9215
0.8805000000000001
0.806
0.7335
0.6705
0.6225
0.5905
0.5645
0.542
0.5235
0.508
0.495
0.484
0.47550000000000003
0.47050000000000003
0.4645
0.462
0.4595
0.457
0.4555
0.4545
0.4535
0.453
0.4525
0.4515
0.4525
0.453
0.452
0.451
0.4515
0.451
0.452
0.4505
0.4505
0.451
0.4505
0.4505
0.4515
0.451
0.451
0.4505
0.4505
0.4515
0.4515
0.4515
0.451
0.451
0.4505
0.451
0.451
0.4515
0.451
0.4515
0.4525
0.4525
0.453
0.4515
0.4515
0.4515
0.453
0.452
0.4525
0.4525
0.453
0.4525
0.4525
0.453
0.454
0.454
0.4535
0.4525
0.4535
0.4535
0.453
0.453
0.452
0.4525
0.4525
0.453
0.453
0.4525
0.453
0.4535
0.4535
0.453
0.454
0.4535
0.4545
0.453
0.4525
0.4525
0.451
0.4525
0.453
0.4535
0.454
0.454
0.453
0.453
0.454
0.454
0.4545
0.4555
0.454
0.454
0.4555
0.4595
0.453
0.454
0.4525
0.4545
0.4535
0.4525
0.4535
0.4545
0.4555
0.455
0.4545
0.4545
0.455
0.4545
0.455
0.454
0.4535
0.4545
0.454
0.454
0.4535
0.455
0.455
0.4555
0.4545
0.4545
0.4535
0.4505
0.4505
0.449
0.4505
0.45
0.447
0.4485
0.447
0.4455
0.4465
0.4465
0.446
0.4565
0.5155
0.6115
0.6955
0.9450000000000001
1.2205
1.2805
1.1975
1.0645
0.9580000000000001
0.8715
0.894
0.9430000000000001
0.662
0.6055
0.5710000000000001
0.5415
0.5115000000000001
0.492
0.47900000000000004
0.466
0.4605
0.4565
0.4515
0.4485
0.4505
0.4475
0.4475
0.4475
0.4465
0.4455
0.4455
0.447
0.446
0.4455
0.4465
0.447
0.4465
0.447
0.4485
0.4475
0.448
0.4485
0.448
0.448
0.4485
0.4475
0.448
0.4485
0.4485
0.4485
0.4485
0.4485
0.4475
0.448
0.4475
0.4465
0.445
0.446
0.4465
0.4475
0.447
0.448
0.449
0.448
0.449
0.449
0.449
0.4495
0.4495
0.449
0.4505
0.4505
0.4505
0.45
0.45
0.4505
0.4495
0.451
0.4505
0.45
0.4495
0.45
0.4505
0.45
0.451
0.4505
0.4515
0.4515
0.4515
0.451
0.4515
0.4505
0.451
0.4515
0.452
0.4525
0.4515
0.4515
0.4515
0.4515
0.451
0.452
0.452
0.4515
0.4525
0.4525
0.452
0.4525
0.453
0.4525
0.453
0.453
0.453
0.4535
0.4535
0.454
0.4535
0.4525
0.4525
0.4515
0.452
0.451
0.453
0.4525
0.4535
0.4535
0.4535
0.4535
0.454
0.4535
0.454
0.454
0.4535
0.454
0.454
0.4545
0.4555
0.455
0.455
0.4555
0.4555
0.4545
0.4535
0.454
0.4535
0.4535
0.4535
0.4525
0.453
0.453
0.4505
0.451
0.4505
0.4495
0.4505
0.449
0.449
0.459
0.512
0.609
0.7055
0.8345
1.0675000000000001
1.2135
1.217
1.1285
1.0090000000000001
0.9085
0.8385
0.7795
0.727
0.6885
0.674
0.6975
0.7565000000000001
0.8505
0.9005
0.887
0.8275
0.756
0.6915
0.637
0.598
0.5605
0.5385
0.5195
0.503
0.4895
0.47950000000000004
0.47150000000000003
0.4665
0.4615
0.4575
0.4555
0.453
0.4515
0.451
0.4495
0.4495
0.4485
0.4465
0.447
0.4475
0.4465
0.4465
0.4445
0.4445
0.445
0.4435
0.4455
0.44
0.4405
0.4395
0.4375
0.4395
0.4385
0.439
0.4405
0.441
0.4425
0.441
0.4415
0.4415
0.4415
0.4425
0.4425
0.442
0.4435
0.4425
0.4415
0.443
0.4435
0.4445
0.445
0.444
0.4455
0.446
0.447
0.4475
0.4465
0.447
0.447
0.4475
0.4465
0.4465
0.4475
0.4475
0.4485
0.446
0.4445
0.4445
0.4435
0.4445
0.4435
0.4465
0.4455
0.4495
0.448
0.4495
0.4495
0.447
0.4465
0.4465
0.4485
0.447
0.448
0.4505
0.447
0.446
0.4455
0.4455
0.4455
0.446
0.4455
0.447
0.4455
0.4445
0.447
0.446
0.447
0.4485
0.4445
0.4465
0.447
0.4435
0.45
0.447
0.445
0.448
0.4485
0.449
0.4495
0.4475
0.4505
0.45
0.4485
0.448
0.447
0.4455
0.4455
0.446
0.4455
0.447
0.4495
0.4525
0.4525
0.453
0.455
0.468
0.507
0.5715
0.6875
0.9035
1.076
1.114
1.0475
0.9425
0.8445
0.7725
0.719
0.6785
0.65
0.639
0.6355000000000001
0.6495
0.6875
0.707
0.6935
0.6575
0.618
0.581
0.553
0.529
0.511
0.497
0.4865
0.47750000000000004
0.468
0.4635
0.4605
0.458
0.456
0.4545
0.454
0.4535
0.4525
0.453
0.4515
0.452
0.4515
0.4515
0.452
0.4515
0.4505
0.451
0.4515
0.451
0.4515
0.4515
0.452
0.451
0.452
0.452
0.452
0.4515
0.4515
0.4525
0.4525
0.4525
0.452
0.452
0.4515
0.4525
0.4525
0.4525
0.4525
0.452
0.452
0.4535
0.4515
0.45
0.451
0.451
0.451
0.4515
0.4515
0.4535
0.4525
0.4525
0.4525
0.4535
0.453
0.4535
0.4545
0.4535
0.454
0.454
0.454
0.4545
0.454
0.4535
0.4535
0.4535
0.454
0.454
0.455
0.4545
0.4535
0.4545
0.455
0.455
0.4545
0.4555
0.4555
0.455
0.4545
0.4555
0.4555
0.4555
0.4545
0.455
0.4555
0.455
0.4555
0.455
0.4555
0.4555
0.4555
0.455
0.455
0.4555
0.4555
0.4555
0.4565
0.4575
0.457
0.4555
0.4565
0.4575
0.456
0.4565
0.4565
0.4575
0.4575
0.4565
0.457
0.457
0.457
0.4575
0.457
0.4575
0.4575
0.4575
0.4575
0.4575
0.4575
0.4575
0.4575
0.4575
0.457
0.4585
0.4575
0.458
0.4575
0.458
0.458
0.458
0.4575
0.457
0.4565
0.4555
0.454
0.4525
0.451
0.4495
0.4495
0.45
0.4495
0.4515
0.4535
0.47050000000000003
0.533
0.6365000000000001
0.8015
1.125
1.3215000000000001
1.3525
1.2575
1.1135
0.9815
0.894
0.8365
0.7985
0.7955
0.8335
0.9105
0.9945
1.0315
0.995
0.9135
0.8195
0.7415
0.6815
0.631
0.5915
0.5595
0.531
0.5115000000000001
0.494
0.482
0.47200000000000003
0.4575
0.455
0.45
0.4485
0.447
0.4455
0.445
0.4455
0.4465
0.4465
0.4445
0.444
0.444
0.4445
0.444
0.4445
0.444
0.445
0.4455
0.4435
0.4445
0.4425
0.443
0.445
0.444
0.4435
0.444
0.442
0.443
0.4425
0.4425
0.4425
0.4435
0.4455
0.4465
0.4445
0.445
0.444
0.4435
0.444
0.4425
0.443
0.4435
0.444
0.443
0.44
0.443
0.4445
0.4435
0.446
0.446
0.4475
0.4455
0.4455
0.4455
0.4475
0.447
0.4465
0.4475
0.4485
0.449
0.4495
0.45
0.451
0.451
0.4515
0.4515
0.452
0.4525
0.452
0.4515
0.4515
0.4515
0.452
0.451
0.4515
0.453
0.4515
0.453
0.4525
0.453
0.4525
0.4535
0.453
0.4525
0.454
0.4535
0.4535
0.4555
0.4535
0.454
0.453
0.454
0.4545
0.4555
0.452
0.4505
0.453
0.4495
0.4505
0.45
0.4495
0.451
0.4505
0.451
0.4515
0.4525
0.4535
0.453
0.453
0.4525
0.4535
0.4525
0.4505
0.451
0.451
0.4505
0.451
0.4515
0.4525
0.457
0.47850000000000004
0.5535
0.6945
1.0190000000000001
1.1935
1.2105000000000001
1.1115
0.9885
0.8775000000000001
0.7865
0.719
0.6655
0.639
0.6615
0.734
0.8145
0.852
0.8285
0.7695
0.7065
0.6495
0.6055
0.5750000000000001
0.552
0.5355
0.5205
0.5055000000000001
0.4915
0.4815
0.47350000000000003
0.4675
0.4635
0.4605
0.4575
0.4555
0.4535
0.452
0.451
0.4495
0.4485
0.4495
0.4495
0.4495
0.4495
0.4485
0.4485
0.449
0.4485
0.4485
0.449
0.449
0.449
0.4495
0.4485
0.4495
0.4495
0.4495
0.45
0.4495
0.45
0.4495
0.4495
0.4495
0.4495
0.449
0.45
0.45
0.449
0.45
0.451
0.45
0.4505
0.45
0.4505
0.4505
0.4505
0.4505
0.4515
0.4515
0.4505
0.4505
0.45
0.4495
0.4495
0.449
0.4495
0.4515
0.4505
0.4505
0.451
0.4515
0.4505
0.45
0.449
0.4485
0.451
0.4515
0.4515
0.4505
0.4515
0.4515
0.4515
0.4515
0.4525
0.452
0.452
0.4525
0.4515
0.4535
0.452
0.4525
0.453
0.4525
0.452
0.453
0.4525
0.4525
0.4525
0.4515
0.452
0.45
0.4515
0.4525
0.451
0.4505
0.45
0.4515
0.45
0.4505
0.4525
0.4525
0.4525
0.4495
0.4525
0.452
0.4525
0.451
0.4515
0.4525
0.4525
0.4525
0.45
0.45
0.4515
0.4485
0.4485
0.4495
0.45
0.4515
0.453
0.4525
0.452
0.452
0.4535
0.453
0.4535
0.4545
0.4535
0.4515
0.4515
0.4515
0.4495
0.454
0.4495
0.451
0.4495
0.4535
0.47750000000000004
0.599
0.7425
0.9825
1.2995
1.338
1.242
1.07
0.9715
0.898
0.8325
0.779
0.7665000000000001
0.8485
1.0070000000000001
1.1195
1.095
0.988
0.87
0.5415
0.465
0.453
0.4505
0.447
0.443
0.4405
0.4395
0.438
0.4395
0.4385
0.4405
0.4365
0.4395
0.442
0.4395
0.44
0.44
0.439
0.4415
0.441
0.4415
0.443
0.443
0.443
0.445
0.444
0.4445
0.4445
0.4445
0.445
0.445
0.4455
0.445
0.445
0.4455
0.445
0.4465
0.4465
0.447
0.4465
0.4465
0.447
0.4465
0.447
0.4465
0.4485
0.4485
0.4485
0.4475
0.4475
0.447
0.4475
0.4455
0.4475
0.4475
0.446
0.4455
0.4455
0.4455
0.446
0.447
0.447
0.4475
0.4475
0.448
0.4475
0.4475
0.448
0.449
0.4485
0.4485
0.4485
0.449
0.449
0.449
0.4495
0.45
0.4495
0.4495
0.45
0.45
0.4495
0.45
0.4495
0.448
0.4495
0.45
0.45
0.4495
0.4495
0.4505
0.4515
0.4505
0.45
0.4495
0.449
0.4495
0.4495
0.4505
0.4505
0.4515
0.4515
0.4515
0.452
0.4525
0.4525
0.4515
0.4525
0.4525
0.452
0.4525
0.4525
0.4535
0.4515
0.453
0.4515
0.4525
0.452
0.4525
0.453
0.4525
0.4515
0.4515
0.452
0.4505
0.4495
0.4495
0.4495
0.4495
0.449
0.4485
0.448
0.4485
0.4475
0.461
0.509
0.595
0.6945
0.8685
1.0875000000000001
1.1705
1.1355
1.0375
0.9315
0.8685
0.8315
0.791
0.7435
0.7075
0.7115
0.7805
0.882
0.9645
0.9835
0.9365
0.8575
0.777
0.7045
0.6475
0.606
0.5745
0.5475
0.527
0.5095000000000001
0.4945
0.4825
0.47350000000000003
0.4665
0.4625
0.457
0.454
0.45
0.449
0.4485
0.445
0.445
0.4435
0.4445
0.4435
0.444
0.4435
0.4435
0.4435
0.443
0.4445
0.444
0.4445
0.4435
0.444
0.444
0.4435
0.4435
0.444
0.4445
0.4425
0.444
0.443
0.4405
0.444
0.445
0.444
0.4425
0.4425
0.4395
0.436
0.4365
0.4365
0.4355
0.4375
0.4355
0.438
0.4375
0.4395
0.44
0.4405
0.441
0.439
0.4395
0.4395
0.437
0.4405
0.4395
0.441
0.4425
0.4425
0.4445
0.443
0.4455
0.4435
0.444
0.4445
0.4455
0.4445
0.446
0.445
0.445
0.445
0.4435
0.445
0.4445
0.4465
0.4455
0.4465
0.446
0.4465
0.4465
0.4475
0.4485
0.448
0.446
0.4465
0.447
0.447
0.4455
0.444
0.447
0.448
0.445
0.445
0.4475
0.4445
0.445
0.4435
0.4425
0.447
0.447
0.446
0.4455
0.4465
0.4455
0.448
0.445
0.4445
0.447
0.445
0.4425
0.445
0.444
0.444
0.4465
0.4445
0.4445
0.4455
0.446
0.4495
0.4525
0.455
0.455
0.47500000000000003
0.5680000000000001
0.721
1.092
1.3335000000000001
1.3635
1.2605
1.1195
0.9865
0.8885000000000001
0.8145
0.7645000000000001
0.7315
0.7205
0.7375
0.7715
0.8035
0.8075
0.7755
0.723
0.6695
0.6215
0.5825
0.5515
0.527
0.5095000000000001
0.4935
0.4815
0.47350000000000003
0.465
0.4595
0.4565
0.4535
0.4515
0.45
0.449
0.4475
0.4475
0.446
0.4465
0.446
0.4455
0.4455
0.445
0.4445
0.443
0.4425
0.4425
0.442
0.4425
0.441
0.4425
0.4425
0.4435
0.4435
0.444
0.4455
0.4455
0.445
0.4445
0.4435
0.444
0.444
0.444
0.4445
0.4455
0.446
0.446
0.445
0.4465
0.447
0.447
0.447
0.447
0.4475
0.4475
0.447
0.4475
0.448
0.4465
0.4485
0.4485
0.447
0.448
0.447
0.447
0.4475
0.4485
0.447
0.448
0.4485
0.4475
0.447
0.4475
0.4475
0.4475
0.4475
0.4475
0.4475
0.449
0.448
0.4485
0.449
0.4495
0.449
0.4485
0.4495
0.449
0.4495
0.4485
0.4495
0.4495
0.45
0.4495
0.4495
0.451
0.4505
0.45
0.451
0.4505
0.451
0.4505
0.4505
0.4515
0.4505
0.4515
0.4515
0.451
0.451
0.451
0.4515
0.451
0.451
0.4505
0.4515
0.45
0.4495
0.4495
0.45
0.4495
0.4515
0.4515
0.4505
0.4515
0.4515
0.451
0.4515
0.4515
0.452
0.4525
0.4525
0.452
0.4525
0.452
0.4525
0.4525
0.4525
0.4515
0.453
0.4515
0.4505
0.45
0.4495
0.4475
0.4475
0.447
0.447
0.4475
0.4495
0.4495
0.459
0.488
0.5365
0.6255000000000001
0.8465
1.1465
1.3035
1.2645
1.1415
1.0185
0.917
0.8425
0.7895
0.7545000000000001
0.761
0.8275
0.9215
0.994
0.9915
0.927
0.8415
0.7595000000000001
0.6875
0.6345000000000001
0.5925
0.5605
0.533
0.5135
0.497
0.4825
0.47350000000000003
0.4655
0.459
0.4555
0.4525
0.449
0.4465
0.445
0.444
0.4435
0.441
0.439
0.4395
0.4385
0.44
0.4405
0.4415
0.4395
0.441
0.4375
0.44
0.4375
0.437
0.4385
0.438
0.4365
0.435
0.437
0.435
0.4365
0.438
0.4385
0.4385
0.4395
0.441
0.4405
0.4415
0.442
0.4425
0.4445
0.4435
0.442
0.4415
0.44
0.439
0.4395
0.44
0.4405
0.4405
0.4405
0.4415
0.4405
0.4395
0.4405
0.442
0.44
0.4425
0.441
0.4405
0.442
0.439
0.4415
0.4415
0.4405
0.443
0.443
0.4425
0.4425
0.444
0.444
0.444
0.4445
0.442
0.4385
0.4425
0.4425
0.442
0.4435
0.4435
0.444
0.4465
0.447
0.448
0.4475
0.4495
0.449
0.45
0.451
0.4505
0.4515
0.4515
0.4505
0.4505
0.4505
0.4505
0.4515
0.4515
0.4515
0.452
0.453
0.4515
0.4515
0.4535
0.4525
0.452
0.453
0.452
0.45
0.4475
0.4495
0.4505
0.4475
0.446
0.446
0.4435
0.4465
0.4455
0.449
0.4485
0.4515
0.4665
0.498
0.55
0.706
0.977
1.2175
1.2865
1.2295
1.1075
0.9815
0.8745
0.7555000000000001
0.6935
0.6555
0.6555
0.7135
0.8095
0.8735
0.874
0.8265
0.7585000000000001
0.6910000000000001
0.6345000000000001
0.5925
0.5645
0.543
0.5235
0.507
0.4945
0.483
0.47350000000000003
0.4675
0.461
0.4575
0.4535
0.4515
0.4495
0.448
0.4475
0.4455
0.4455
0.446
0.445
0.4455
0.4455
0.444
0.4435
0.444
0.4445
0.4445
0.4445
0.445
0.4455
0.4455
0.4455
0.4455
0.444
0.4435
0.4435
0.4425
0.439
0.439
0.4385
0.4375
0.4375
0.44
0.4405
0.4425
0.443
0.4435
0.444
0.4445
0.445
0.446
0.446
0.4455
0.4465
0.447
0.4465
0.447
0.447
0.447
0.4465
0.4475
0.4475
0.4475
0.447
0.4485
0.4475
0.4475
0.4475
0.4475
0.4475
0.447
0.4455
0.4445
0.4435
0.4435
0.4425
0.4445
0.446
0.4465
0.447
0.448
0.4475
0.4475
0.4485
0.448
0.4485
0.4485
0.449
0.4495
0.449
0.4495
0.4495
0.4495
0.4495
0.4505
0.45
0.4495
0.4495
0.45
0.4495
0.45
0.449
0.45
0.4495
0.4495
0.4495
0.4495
0.4495
0.448
0.447
0.446
0.4455
0.4455
0.4445
0.444
0.4445
0.445
0.4455
0.445
0.446
0.4455
0.4455
0.4455
0.4455
0.4435
0.447
0.4465
0.448
0.4485
0.4485
0.452
0.449
0.4505
0.449
0.451
0.449
0.449
0.4495
0.449
0.4465
0.4475
0.4455
0.447
0.4485
0.4495
0.451
0.4585
0.4875
0.548
0.6325000000000001
0.836
1.101
1.1500000000000001
1.0835000000000001
0.9715
0.8675
0.791
0.7415
0.7000000000000001
0.66
0.711
0.8775000000000001
1.0025
0.9775
0.8725
0.7715
0.6805
0.619
0.5755
0.538
0.512
0.4925
0.48
0.47150000000000003
0.4655
0.4565
0.4535
0.4495
0.4445
0.4415
0.442
0.4405
0.44
0.4365
0.437
0.435
0.436
0.437
0.438
0.438
0.4395
0.4415
0.4405
0.4395
0.4395
0.4405
0.439
0.44
0.439
0.4375
0.4395
0.439
0.441
0.442
0.444
0.444
0.445
0.4455
0.446
0.447
0.446
0.447
0.4475
0.4485
0.448
0.4475
0.4495
0.4485
0.4475
0.4475
0.4485
0.448
0.4485
0.4485
0.4485
0.449
0.449
0.449
0.4495
0.449
0.4495
0.449
0.4495
0.4495
0.4495
0.4495
0.4505
0.45
0.4505
0.4505
0.4495
0.4485
0.4485
0.45
0.4495
0.45
0.4515
0.4515
0.45
0.4515
0.451
0.451
0.4505
0.4505
0.4515
0.4515
0.4515
0.452
0.4525
0.452
0.4525
0.452
0.4515
0.4525
0.4525
0.4525
0.4515
0.452
0.4515
0.4525
0.4525
0.4525
0.452
0.4525
0.4515
0.451
0.4515
0.4515
0.452
0.4525
0.4535
0.4525
0.4525
0.452
0.4515
0.4495
0.4505
0.4495
0.4495
0.4495
0.4485
0.4495
0.449
0.4495
0.449
0.4505
0.4615
0.498
0.5605
0.6890000000000001
0.9585
1.2445
1.3165
1.2550000000000001
1.119
0.9885
0.887
0.8235
0.7775
0.742
0.7125
0.6935
0.6985
0.751
0.8300000000000001
0.8265
0.7795
0.719
0.6615
0.615
0.578
0.555
0.5375
0.5215
0.5055000000000001
0.4935
0.4815
0.47300000000000003
0.4675
0.462
0.458
0.4545
0.4535
0.4505
0.45
0.4485
0.4485
0.4475
0.447
0.4465
0.447
0.446
0.4465
0.4465
0.4465
0.446
0.446
0.4465
0.4465
0.445
0.4455
0.4465
0.4465
0.446
0.446
0.447
0.446
0.4465
0.4465
0.4465
0.446
0.4455
0.444
0.443
0.443
0.4425
0.4425
0.4435
0.4445
0.4455
0.4455
0.445
0.445
0.4435
0.443
0.443
0.443
0.44
0.441
0.4395
0.44
0.441
0.443
0.439
0.4395
0.4405
0.441
0.441
0.439
0.44
0.4415
0.443
0.4435
0.4445
0.445
0.446
0.447
0.4475
0.447
0.4475
0.448
0.449
0.447
0.4475
0.447
0.446
0.4465
0.4455
0.444
0.443
0.445
0.445
0.4435
0.444
0.445
0.4435
0.443
0.4425
0.442
0.4435
0.4435
0.4425
0.4435
0.4435
0.4455
0.446
0.4465
0.448
0.4505
0.4495
0.4505
0.4495
0.4515
0.4485
0.4485
0.4505
0.447
0.449
0.4475
0.4485
0.448
0.446
0.4485
0.4505
0.4495
0.4495
0.4515
0.4515
0.449
0.4485
0.4465
0.4515
0.459
0.5105000000000001
0.7225
1.057
1.2795
1.2815
1.1675
1.024
0.89
0.8105
0.7465
0.7125
0.7015
0.735
0.7955
0.8375
0.8185
0.765
0.665
0.614
0.5740000000000001
0.5445
0.5215
0.5035000000000001
0.49
0.47900000000000004
0.47150000000000003
0.4645
0.4605
0.4565
0.454
0.4525
0.4525
0.45
0.45
0.4495
0.4485
0.448
0.4485
0.448
0.4485
0.4475
0.4475
0.4475
0.4465
0.4465
0.447
0.4465
0.4475
0.4475
0.4475
0.4465
0.446
0.4465
0.447
0.4465
0.4465
0.4475
0.447
0.447
0.4475
0.4495
0.447
0.448
0.4475
0.447
0.447
0.449
0.4485
0.4485
0.4485
0.449
0.448
0.4485
0.4485
0.4485
0.449
0.448
0.449
0.4485
0.4475
0.4455
0.4465
0.4465
0.446
0.4465
0.4485
0.4495
0.4485
0.448
0.448
0.4485
0.449
0.449
0.449
0.4505
0.4505
0.4505
0.4495
0.4515
0.453
0.452
0.451
0.4515
0.4515
0.452
0.4515
0.4515
0.452
0.452
0.4515
0.4515
0.4525
0.4515
0.452
0.4525
0.4535
0.4525
0.453
0.453
0.4525
0.452
0.4525
0.453
0.453
0.4525
0.453
0.4535
0.453
0.4535
0.453
0.453
0.453
0.4535
0.4535
0.453
0.4535
0.454
0.453
0.4535
0.453
0.4535
0.4535
0.454
0.4535
0.454
0.4535
0.454
0.454
0.454
0.4535
0.453
0.453
0.453
0.453
0.4525
0.4525
0.4515
0.452
0.4515
0.45
0.45
0.4495
0.4495
0.45
0.451
0.45
0.4575
0.47600000000000003
0.527
0.665
0.9055
1.133
1.1715
1.1075
0.9985
0.8895000000000001
0.7955
0.7165
0.6745
0.6785
0.715
0.769
0.8415
0.8935000000000001
0.8885000000000001
0.8325
0.7615000000000001
0.6945
0.6425
0.6015
0.5635
0.5415
0.5235
0.507
0.492
0.4805
0.47150000000000003
0.466
0.4605
0.457
0.4535
0.451
0.4505
0.4485
0.447
0.4465
0.446
0.4455
0.445
0.4465
0.4475
0.4455
0.446
0.4455
0.4455
0.4445
0.445
0.4455
0.445
0.444
0.444
0.4465
0.4445
0.4455
0.446
0.4465
0.447
0.446
0.447
0.4455
0.4475
0.446
0.447
0.446
0.4465
0.447
0.4465
0.445
0.446
0.443
0.4465
0.4465
0.4455
0.4475
0.4505
0.4465
0.446
0.4465
0.4475
0.448
0.4505
0.449
0.4505
0.446
0.448
0.447
0.446
0.4485
0.4465
0.4485
0.447
0.447
0.447
0.4475
0.4485
0.4475
0.4495
0.4505
0.4495
0.451
0.451
0.4505
0.45
0.452
0.4545
0.4515
0.451
0.4495
0.449
0.447
0.4495
0.451
0.4515
0.451
0.453
0.4505
0.4535
0.4525
0.452
0.4535
0.4525
0.4515
0.4535
0.4535
0.4515
0.4535
0.4525
0.452
0.453
0.453
0.4515
0.4525
0.4515
0.4515
0.452
0.452
0.453
0.4535
0.453
0.453
0.4535
0.4525
0.454
0.4545
0.454
0.4535
0.4535
0.452
0.454
0.453
0.451
0.448
0.4495
0.4495
0.451
0.4485
0.449
0.448
0.4475
0.4485
0.4605
0.4935
0.5730000000000001
1.131
0.845
0.6945
0.654
0.683
0.7555000000000001
0.8765000000000001
0.97
0.9745
0.9035
0.8130000000000001
0.726
0.663
0.6175
0.5895
0.5675
0.5455
0.512
0.495
0.4835
0.47400000000000003
0.466
0.4615
0.4595
0.455
0.4535
0.4515
0.4505
0.449
0.4485
0.448
0.4495
0.446
0.447
0.449
0.448
0.447
0.4445
0.4465
0.446
0.4455
0.447
0.447
0.446
0.4445
0.446
0.4475
0.448
0.448
0.448
0.445
0.4475
0.4475
0.4475
0.4475
0.4475
0.447
0.447
0.448
0.4475
0.4475
0.448
0.448
0.447
0.4485
0.4475
0.4475
0.4485
0.4475
0.448
0.447
0.4495
0.4475
0.448
0.4485
0.449
0.4495
0.4495
0.4525
0.4515
0.4515
0.451
0.448
0.4455
0.4445
0.4445
0.442
0.445
0.444
0.445
0.4425
0.4425
0.4415
0.442
0.4425
0.445
0.446
0.4475
0.4515
0.451
0.4525
0.4535
0.4525
0.451
0.452
0.452
0.4525
0.452
0.4525
0.452
0.4525
0.4515
0.4525
0.4525
0.4525
0.4525
0.4535
0.4555
0.4555
0.4545
0.454
0.4545
0.4535
0.454
0.454
0.4535
0.453
0.453
0.4525
0.4545
0.4535
0.455
0.4545
0.454
0.4535
0.455
0.4535
0.452
0.452
0.4525
0.4525
0.4545
0.454
0.4535
0.4525
0.4525
0.4555
0.451
0.4505
0.4495
0.4485
0.4485
0.4485
0.449
0.449
0.4515
0.47250000000000003
0.539
0.604
0.7185
0.9225
1.087
1.131
1.0615
0.96
0.8665
0.7965
0.7375
0.6885
0.665
0.6975
0.8285
0.9595
0.9635
0.8775000000000001
0.745
0.6735
0.618
0.5775
0.5485
0.5235
0.505
0.4835
0.47300000000000003
0.458
0.4555
0.4495
0.4435
0.444
0.4445
0.444
0.445
0.439
0.4425
0.4445
0.443
0.4445
0.444
0.446
0.445
0.4445
0.4465
0.4425
0.4445
0.4435
0.4435
0.4455
0.4445
0.446
0.4455
0.445
0.4465
0.449
0.447
0.448
0.449
0.449
0.449
0.449
0.4485
0.449
0.448
0.4485
0.4485
0.4495
0.449
0.4495
0.4485
0.452
0.4505
0.45
0.4495
0.4515
0.4495
0.451
0.4495
0.448
0.446
0.444
0.4455
0.445
0.444
0.444
0.445
0.444
0.4435
0.4425
0.443
0.4445
0.443
0.4425
0.4425
0.4425
0.443
0.443
0.4445
0.443
0.443
0.443
0.4435
0.445
0.4435
0.4425
0.4425
0.4435
0.445
0.4455
0.446
0.446
0.4455
0.4465
0.445
0.4465
0.4475
0.445
0.445
0.445
0.4445
0.4445
0.445
0.4445
0.4455
0.4455
0.445
0.4445
0.4475
0.4455
0.446
0.446
0.446
0.446
0.4455
0.4455
0.445
0.4455
0.447
0.4475
0.4445
0.4455
0.4455
0.4455
0.444
0.4425
0.442
0.4405
0.4415
0.4425
0.4435
0.4445
0.4455
0.4445
0.453
0.4995
0.5875
0.711
0.9335
1.2195
1.371
1.291
1.1495
1.014
0.9185
0.8485
0.7865
0.737
0.7005
0.6855
0.6945
0.739
0.7855
0.7985
0.7685
0.7165
0.6625
0.6155
0.5785
0.55
0.5275
0.511
0.497
0.4845
0.47350000000000003
0.4645
0.458
0.4525
0.4515
0.447
0.445
0.444
0.4445
0.4415
0.4405
0.441
0.441
0.4405
0.4395
0.4395
0.439
0.4385
0.438
0.4385
0.4395
0.4375
0.4375
0.4375
0.4375
0.4375
0.4385
0.4395
0.441
0.443
0.4435
0.445
0.445
0.4465
0.4485
0.4465
0.444
0.4445
0.4445
0.444
0.444
0.4435
0.4415
0.442
0.4425
0.4415
0.441
0.443
0.439
0.439
0.4405
0.4425
0.4405
0.4415
0.4415
0.4415
0.4425
0.4425
0.4415
0.441
0.4425
0.4455
0.4415
0.4435
0.4425
0.4405
0.4415
0.443
0.444
0.443
0.4435
0.4445
0.442
0.4435
0.445
0.447
0.445
0.4455
0.4435
0.4435
0.447
0.4435
0.4435
0.443
0.4425
0.4445
0.4455
0.445
0.443
0.4435
0.4445
0.447
0.446
0.448
0.445
0.4465
0.4475
0.447
0.45
0.449
0.451
0.453
0.4515
0.4525
0.453
0.4545
0.4525
0.4545
0.4535
0.453
0.4535
0.455
0.4545
0.454
0.453
0.454
0.4545
0.4565
0.454
0.4525
0.4515
0.4525
0.452
0.4515
0.453
0.4495
0.4485
0.448
0.4505
0.4505
0.4515
0.452
0.4575
0.454
0.5705
1.28
0.911
0.7905
0.715
0.7035
0.727
0.751
0.7845
0.7835
0.7445
0.6835
0.622
0.5785
0.5455
0.5215
0.501
0.4835
0.47300000000000003
0.467
0.4615
0.4565
0.455
0.4535
0.452
0.451
0.4515
0.4515
0.45
0.449
0.4485
0.4485
0.448
0.449
0.4495
0.4485
0.4485
0.4485
0.4485
0.4495
0.448
0.45
0.449
0.4495
0.449
0.45
0.4505
0.45
0.4495
0.4495
0.45
0.4505
0.451
0.45
0.45
0.4505
0.4505
0.451
0.4505
0.45
0.451
0.4515
0.451
0.451
0.4515
0.452
0.451
0.4515
0.4515
0.4515
0.4525
0.452
0.4515
0.4525
0.4515
0.4515
0.451
0.45
0.4495
0.45
0.452
0.4505
0.451
0.4505
0.4505
0.4525
0.452
0.4525
0.4525
0.453
0.4535
0.4525
0.4535
0.4535
0.453
0.4525
0.4515
0.4515
0.4515
0.452
0.452
0.4525
0.4535
0.454
0.4545
0.453
0.453
0.4535
0.4535
0.4535
0.454
0.454
0.4575
0.455
0.4555
0.4565
0.4545
0.4525
0.4525
0.452
0.4535
0.4525
0.4525
0.4525
0.454
0.4535
0.4535
0.454
0.4555
0.4545
0.456
0.4555
0.4555
0.456
0.4555
0.456
0.4555
0.456
0.4565
0.4565
0.456
0.456
0.4565
0.4565
0.456
0.457
0.456
0.4565
0.455
0.4535
0.453
0.4535
0.453
0.452
0.4515
0.451
0.4505
0.4525
0.4525
0.455
0.47150000000000003
0.5195
0.5725
0.6935
0.9225
1.1225
1.1975
1.1525
1.045
0.9335
0.8385
0.7655000000000001
0.7105
0.6895
0.7165
0.7685
0.8235
0.8695
0.883
0.851
0.7915
0.7255
0.6675
0.6225
0.589
0.5635
0.5445
0.526
0.5095000000000001
0.4945
0.4835
0.47550000000000003
0.46900000000000003
0.4635
0.4605
0.4565
0.4545
0.453
0.4515
0.451
0.4495
0.4495
0.449
0.4485
0.4485
0.449
0.4485
0.447
0.4475
0.448
0.448
0.4475
0.447
0.4465
0.4465
0.4465
0.447
0.4465
0.448
0.448
0.4475
0.45
0.4485
0.4495
0.449
0.448
0.4485
0.4475
0.4455
0.447
0.446
0.448
0.4485
0.4495
0.448
0.45
0.447
0.448
0.4485
0.4495
0.447
0.4485
0.4475
0.449
0.4485
0.4475
0.449
0.449
0.4495
0.4485
0.452
0.4545
0.4475
0.4495
0.451
0.45
0.4495
0.4465
0.4505
0.4465
0.447
0.4515
0.447
0.4465
0.445
0.449
0.448
0.4475
0.447
0.4485
0.4455
0.4485
0.4485
0.45
0.448
0.4465
0.447
0.448
0.4485
0.4475
0.4425
0.4445
0.449
0.4495
0.4495
0.4465
0.447
0.447
0.4515
0.4475
0.451
0.448
0.4505
0.4495
0.451
0.4475
0.4535
0.452
0.4535
0.453
0.4525
0.4535
0.4525
0.4525
0.452
0.452
0.453
0.453
0.4535
0.454
0.4535
0.454
0.464
0.501
0.5485
0.598
0.7255
0.917
1.0395
1.0465
0.9705
0.8755000000000001
0.7825
0.7115
0.6635
0.624
0.6205
0.6595
0.7395
0.8505
0.9285
0.9325
0.877
0.7995
0.7255
0.6645
0.617
0.582
0.554
0.5345
0.517
0.5015000000000001
0.491
0.47800000000000004
0.46950000000000003
0.4625
0.4595
0.453
0.453
0.4515
0.4495
0.448
0.447
0.446
0.4455
0.445
0.4455
0.4445
0.4455
0.4465
0.447
0.4475
0.4485
0.45
0.451
0.451
0.451
0.451
0.451
0.4515
0.4515
0.4515
0.451
0.4505
0.452
0.451
0.451
0.451
0.451
0.45
0.4505
0.4525
0.453
0.4525
0.4515
0.4525
0.4525
0.4525
0.4525
0.4525
0.453
0.453
0.4535
0.453
0.4535
0.453
0.454
0.4535
0.4525
0.453
0.4535
0.454
0.4535
0.4535
0.4545
0.455
0.4545
0.4545
0.455
0.4545
0.454
0.4525
0.4535
0.4535
0.454
0.4555
0.4545
0.454
0.455
0.4555
0.455
0.4555
0.455
0.4545
0.4545
0.4555
0.4555
0.4555
0.4555
0.4555
0.4565
0.4555
0.457
0.4565
0.4565
0.4565
0.4575
0.4575
0.456
0.4565
0.4555
0.4555
0.4555
0.456
0.4565
0.457
0.4575
0.4565
0.4565
0.457
0.4575
0.457
0.4555
0.456
0.455
0.457
0.4575
0.4575
0.4565
0.4585
0.4555
0.4565
0.4555
0.4545
0.4545
0.454
0.453
0.4525
0.452
0.4515
0.4505
0.451
0.4515
0.451
0.4525
0.4515
0.4515
0.45
0.4525
0.4535
0.453
0.456
0.4885
0.5595
0.654
0.7795
0.963
1.0875000000000001
1.0825
0.993
0.8945000000000001
0.8275
0.7815
0.7375
0.6955
0.6625
0.6505
0.666
0.715
0.759
0.7605000000000001
0.72
0.6665
0.6145
0.5755
0.5445
0.521
0.5045000000000001
0.49
0.47950000000000004
0.47000000000000003
0.4645
0.4605
0.4585
0.4565
0.4545
0.4545
0.4535
0.451
0.4515
0.4515
0.452
0.4525
0.4505
0.4515
0.451
0.4515
0.451
0.448
0.4475
0.4505
0.4505
0.4485
0.446
0.4475
0.4475
0.447
0.446
0.4475
0.4485
0.449
0.4505
0.4475
0.4485
0.45
0.4495
0.4465
0.4465
0.449
0.447
0.446
0.447
0.4455
0.4485
0.445
0.4495
0.4495
0.45
0.451
0.451
0.4525
0.453
0.4525
0.4515
0.4515
0.4515
0.4485
0.45
0.451
0.4535
0.454
0.455
0.455
0.4565
0.454
0.4565
0.4565
0.456
0.4545
0.454
0.4525
0.452
0.4515
0.453
0.4545
0.4545
0.4555
0.4555
0.457
0.4585
0.458
0.4585
0.458
0.458
0.4585
0.459
0.4585
0.459
0.4595
0.459
0.4595
0.459
0.4595
0.459
0.4595
0.4595
0.46
0.459
0.4595
0.46
0.46
0.4585
0.461
0.4605
0.4595
0.4605
0.4605
0.459
0.4585
0.4585
0.4595
0.459
0.4595
0.4585
0.4585
0.4575
0.457
0.4565
0.4565
0.4555
0.4565
0.456
0.4555
0.456
0.459
0.4995
0.5885
0.7145
0.9375
1.1835
1.3075
1.2555
1.1285
0.9975
0.8995
0.8345
0.781
0.7475
0.746
0.778
0.8075
0.8315
0.8385
0.8155
0.7665000000000001
0.7065
0.654
0.6105
0.5785
0.5545
0.536
0.518
0.505
0.4935
0.4825
0.47500000000000003
0.46900000000000003
0.4645
0.4605
0.458
0.4565
0.4555
0.4545
0.454
0.4525
0.4505
0.45
0.4485
0.448
0.4475
0.4485
0.4495
0.4495
0.4505
0.4515
0.4515
0.452
0.4515
0.4525
0.453
0.453
0.453
0.453
0.4535
0.4535
0.4535
0.4525
0.453
0.453
0.4535
0.454
0.453
0.4525
0.454
0.454
0.453
0.453
0.4535
0.454
0.4535
0.4535
0.4535
0.454
0.454
0.4545
0.4535
0.454
0.4545
0.4545
0.454
0.4545
0.454
0.456
0.455
0.4555
0.4555
0.4555
0.4555
0.455
0.4545
0.4535
0.4515
0.4525
0.451
0.4505
0.4495
0.4495
0.4495
0.45
0.449
0.4505
0.4485
0.4475
0.449
0.448
0.4485
0.4495
0.4485
0.449
0.449
0.4495
0.4495
0.4495
0.449
0.4495
0.4515
0.452
0.4525
0.4505
0.45
0.4495
0.449
0.449
0.4535
0.453
0.4535
0.4525
0.454
0.453
0.454
0.4545
0.4545
0.4555
0.456
0.4565
0.456
0.4565
0.457
0.457
0.457
0.4575
0.4575
0.4575
0.4575
0.4575
0.4585
0.4565
0.4595
0.457
0.457
0.456
0.4555
0.4535
0.4515
0.4515
0.45
0.449
0.45
0.4525
0.4565
0.4595
0.462
0.4645
0.467
0.47400000000000003
0.5125
0.582
0.711
0.8985
1.0585
1.0815000000000001
0.9965
0.8965
0.8150000000000001
0.7615000000000001
0.7205
0.6880000000000001
0.7095
0.7655000000000001
0.8195
0.8325
0.8065
0.7545000000000001
0.6930000000000001
0.637
0.5945
0.5615
0.535
0.5155
0.499
0.4875
0.47700000000000004
0.47000000000000003
0.464
0.4605
0.4575
0.4565
0.455
0.4525
0.4525
0.4505
0.449
0.4485
0.4465
0.448
0.447
0.446
0.448
0.4475
0.449
0.4495
0.4505
0.4505
0.452
0.451
0.4515
0.4505
0.4525
0.4515
0.4515
0.4505
0.452
0.451
0.453
0.453
0.4515
0.4535
0.4525
0.452
0.453
0.453
0.454
0.451
0.4535
0.454
0.4525
0.4525
0.451
0.4545
0.451
0.453
0.454
0.453
0.4525
0.4535
0.4525
0.452
0.4515
0.451
0.452
0.4515
0.4535
0.4515
0.451
0.452
0.452
0.4525
0.4535
0.453
0.4525
0.453
0.4525
0.4525
0.4495
0.449
0.4515
0.4505
0.451
0.451
0.453
0.4535
0.453
0.4535
0.4525
0.4545
0.454
0.4545
0.4545
0.4535
0.454
0.4525
0.453
0.4545
0.4525
0.452
0.4515
0.4525
0.4525
0.4545
0.455
0.456
0.4565
0.458
0.458
0.459
0.46
0.46
0.4605
0.46
0.4595
0.4595
0.4595
0.4605
0.461
0.46
0.4595
0.459
0.4605
0.4575
0.4595
0.454
0.4535
0.4545
0.4535
0.453
0.4535
0.4555
0.461
0.482
0.5295
0.6175
0.8315
1.0675000000000001
1.195
1.1535
1.049
0.9355
0.8435
0.7715
0.7145
0.6755
0.681
0.7365
0.807
0.8595
0.8685
0.8305
0.7695
0.7075
0.653
0.612
0.5815
0.557
0.538
0.522
0.5075000000000001
0.4945
0.4845
0.47700000000000004
0.47200000000000003
0.4675
0.464
0.4625
0.4595
0.458
0.458
0.458
0.454
0.4555
0.4545
0.453
0.4525
0.4515
0.4495
0.4505
0.4495
0.4485
0.448
0.448
0.4485
0.45
0.4505
0.4525
0.4535
0.455
0.4545
0.4545
0.4545
0.454
0.455
0.455
0.455
0.455
0.4545
0.4555
0.455
0.4545
0.454
0.455
0.4565
0.4555
0.4565
0.456
0.4555
0.4565
0.4565
0.457
0.456
0.4555
0.457
0.457
0.4565
0.456
0.4555
0.4555
0.4555
0.4555
0.456
0.4565
0.458
0.4575
0.4565
0.456
0.4565
0.4575
0.457
0.458
0.457
0.4575
0.458
0.458
0.4575
0.458
0.458
0.4585
0.459
0.4585
0.458
0.459
0.457
0.4575
0.457
0.4575
0.458
0.4575
0.458
0.4585
0.459
0.4595
0.459
0.4585
0.459
0.459
0.4585
0.459
0.459
0.4595
0.4585
0.457
0.4585
0.4595
0.459
0.4575
0.4575
0.458
0.458
0.459
0.459
0.4585
0.459
0.459
0.4585
0.4595
0.46
0.458
0.4585
0.46
0.4595
0.4595
0.46
0.459
0.4585
0.4595
0.4595
0.4595
0.4595
0.4575
0.4575
0.4575
0.4575
0.457
0.4555
0.455
0.4575
0.4565
0.4595
0.459
0.464
0.508
0.5955
0.6910000000000001
0.8595
1.0755000000000001
1.2065000000000001
1.1535
1.034
0.9215
0.8305
0.759
0.7010000000000001
0.6515
0.617
0.6305000000000001
0.7055
0.7985
0.8495
0.8375
0.78
0.7135
0.6535
0.6065
0.5730000000000001
0.5465
0.529
0.512
0.4955
0.4835
0.47550000000000003
0.467
0.4615
0.457
0.4555
0.4545
0.452
0.4495
0.451
0.4485
0.449
0.451
0.45
0.449
0.447
0.45
0.446
0.4475
0.448
0.4455
0.448
0.446
0.4425
0.446
0.4445
0.4475
0.4455
0.4485
0.4485
0.4485
0.4495
0.4455
0.446
0.446
0.4505
0.45
0.4525
0.451
0.4525
0.45
0.4505
0.451
0.4515
0.454
0.45
0.4515
0.452
0.451
0.452
0.4525
0.4525
0.454
0.4555
0.455
0.456
0.457
0.4565
0.4565
0.4575
0.4575
0.4575
0.4575
0.4575
0.458
0.458
0.458
0.4585
0.458
0.4585
0.4585
0.459
0.458
0.4585
0.4595
0.4595
0.459
0.4595
0.459
0.459
0.4585
0.4595
0.4595
0.46
0.459
0.459
0.4595
0.46
0.46
0.4595
0.4595
0.4585
0.4585
0.4585
0.4595
0.4585
0.459
0.4595
0.459
0.46
0.46
0.4595
0.46
0.4605
0.4595
0.4605
0.4605
0.4615
0.4605
0.4615
0.4605
0.4605
0.4595
0.459
0.459
0.4575
0.4575
0.457
0.4565
0.4575
0.4585
0.459
0.4605
0.47500000000000003
0.533
0.631
0.7405
0.9265
1.1995
1.3905
1.4085
1.2755
1.123
1.0145
0.9555
0.9065
0.8565
0.809
0.7815
0.779
0.8150000000000001
0.8545
0.8505
0.8065
0.745
0.686
0.6355000000000001
0.594
0.5635
0.5415
0.5245
0.51
0.4965
0.486
0.47700000000000004
0.47150000000000003
0.4665
0.4635
0.46
0.4575
0.4555
0.454
0.454
0.453
0.4525
0.452
0.4515
0.4515
0.4505
0.451
0.451
0.4505
0.4515
0.4515
0.451
0.451
0.4515
0.4505
0.45
0.45
0.45
0.4475
0.4465
0.446
0.4465
0.447
0.4485
0.45
0.4495
0.45
0.4515
0.4515
0.4515
0.4515
0.4515
0.451
0.4515
0.4525
0.4525
0.4525
0.452
0.4515
0.4525
0.4525
0.452
0.452
0.4525
0.4525
0.452
0.452
0.4525
0.4525
0.4525
0.4515
0.452
0.4525
0.453
0.453
0.4525
0.453
0.4495
0.4485
0.4475
0.4475
0.4465
0.4465
0.4455
0.4465
0.4475
0.4505
0.4485
0.45
0.4505
0.451
0.4515
0.4515
0.451
0.451
0.4515
0.4515
0.453
0.453
0.4535
0.452
0.4525
0.4525
0.4525
0.453
0.4515
0.4525
0.452
0.454
0.4535
0.454
0.4545
0.4535
0.4525
0.4545
0.4535
0.4535
0.4535
0.4545
0.4545
0.4545
0.4525
0.455
0.4515
0.4515
0.452
0.454
0.452
0.452
0.453
0.452
0.453
0.4515
0.454
0.4525
0.454
0.4525
0.4505
0.4515
0.4505
0.449
0.4505
0.4515
0.45
0.4535
0.4525
0.47150000000000003
1.0935
0.8865000000000001
0.7345
0.733
0.7715
0.781
0.7455
0.68
0.6045
0.559
0.531
0.515
0.5
0.4865
0.47700000000000004
0.464
0.46
0.457
0.455
0.452
0.448
0.4465
0.4455
0.445
0.446
0.447
0.447
0.447
0.449
0.449
0.4495
0.4495
0.45
0.45
0.451
0.451
0.451
0.4495
0.4495
0.4505
0.4505
0.4515
0.4515
0.451
0.45
0.4505
0.451
0.451
0.4505
0.451
0.4505
0.4495
0.4505
0.4505
0.4495
0.4505
0.452
0.4515
0.4515
0.451
0.4515
0.4515
0.452
0.4525
0.452
0.4515
0.4525
0.4525
0.453
0.4525
0.453
0.452
0.4525
0.4535
0.453
0.4525
0.4535
0.453
0.453
0.4515
0.45
0.4495
0.4495
0.449
0.4495
0.4505
0.4505
0.4515
0.4525
0.453
0.4525
0.4535
0.4535
0.453
0.4535
0.4535
0.4535
0.4525
0.453
0.4535
0.4545
0.454
0.454
0.454
0.4545
0.4545
0.454
0.454
0.455
0.4555
0.4555
0.4555
0.4555
0.4555
0.4565
0.457
0.456
0.4555
0.455
0.456
0.4555
0.4555
0.4555
0.4575
0.455
0.458
0.454
0.4545
0.4545
0.4565
0.4555
0.4555
0.4535
0.453
0.4535
0.4525
0.4535
0.4525
0.453
0.4535
0.4535
0.454
0.4545
0.455
0.454
0.4525
0.4515
0.4515
0.4545
0.4595
0.461
0.4625
0.466
0.47300000000000003
0.4875
0.504
0.5565
0.735
0.9895
1.157
1.1855
1.1155
1.002
0.8925000000000001
0.8025
0.746
0.717
0.7275
0.7885
0.8715
0.9365
0.9500000000000001
0.9035
0.8305
0.754
0.6885
0.6335000000000001
0.591
0.561
0.539
0.5215
0.5025000000000001
0.491
0.47750000000000004
0.46950000000000003
0.4625
0.4585
0.455
0.454
0.452
0.4515
0.45
0.45
0.4495
0.4505
0.449
0.45
0.449
0.448
0.4475
0.449
0.448
0.449
0.449
0.4475
0.448
0.4485
0.448
0.448
0.448
0.4505
0.4475
0.4495
0.4495
0.4485
0.452
0.448
0.4475
0.449
0.4485
0.449
0.449
0.4475
0.449
0.4505
0.449
0.4485
0.449
0.4485
0.45
0.4485
0.449
0.449
0.449
0.449
0.4515
0.4495
0.447
0.4505
0.4495
0.449
0.4485
0.448
0.4495
0.447
0.45
0.449
0.4495
0.4495
0.4505
0.451
0.449
0.4495
0.4505
0.45
0.45
0.449
0.448
0.446
0.449
0.449
0.4495
0.448
0.4515
0.451
0.4525
0.4495
0.4485
0.4505
0.4465
0.448
0.449
0.45
0.449
0.4505
0.449
0.4495
0.448
0.451
0.4505
0.4525
0.451
0.4515
0.4515
0.449
0.449
0.4505
0.4515
0.452
0.4525
0.452
0.4525
0.4535
0.455
0.454
0.4545
0.454
0.453
0.4515
0.451
0.4495
0.4495
0.45
0.4505
0.452
0.455
0.4665
0.4945
0.532
0.632
0.8805000000000001
1.1345
1.214
1.1485
1.0395
0.933
0.8415
0.765
0.7075
0.679
0.7055
0.7765
0.8605
0.929
0.9435
0.8995
0.8290000000000001
0.7495
0.6845
0.6345000000000001
0.596
0.5670000000000001
0.5435
0.523
0.507
0.4935
0.4825
0.47400000000000003
0.467
0.4625
0.459
0.4575
0.454
0.451
0.4495
0.4485
0.449
0.449
0.4485
0.4485
0.449
0.4495
0.449
0.4505
0.45
0.45
0.45
0.4505
0.4495
0.4495
0.4505
0.4505
0.45
0.451
0.4505
0.4505
0.4515
0.451
0.4515
0.4515
0.451
0.4515
0.4515
0.4505
0.451
0.451
0.4505
0.4505
0.4505
0.4515
0.451
0.4515
0.4515
0.4515
0.451
0.4495
0.4485
0.448
0.4475
0.447
0.4455
0.4455
0.4445
0.444
0.445
0.4455
0.446
0.4475
0.449
0.4505
0.4505
0.4505
0.451
0.4515
0.4515
0.4515
0.4515
0.452
0.4525
0.453
0.4525
0.4525
0.452
0.4525
0.452
0.453
0.453
0.4545
0.4545
0.454
0.4545
0.4555
0.455
0.4545
0.4555
0.4555
0.454
0.454
0.453
0.4525
0.451
0.451
0.4505
0.452
0.454
0.4545
0.454
0.4545
0.455
0.455
0.455
0.455
0.4555
0.456
0.4565
0.4565
0.4555
0.4565
0.4555
0.456
0.4575
0.4565
0.457
0.457
0.4565
0.4565
0.456
0.4555
0.4555
0.4575
0.4555
0.4555
0.456
0.4555
0.454
0.4555
0.454
0.4535
0.4525
0.4515
0.4515
0.452
0.4515
0.4525
0.453
0.4545
0.4675
0.5305
0.623
0.712
0.8795000000000001
1.095
1.1745
1.1365
1.0285
0.9155
0.8265
0.7615000000000001
0.705
0.659
0.622
0.6085
0.6335000000000001
0.6885
0.7255
0.7235
0.6925
0.6485
0.6055
0.5690000000000001
0.5415
0.521
0.5075000000000001
0.495
0.486
0.47850000000000004
0.46950000000000003
0.465
0.462
0.459
0.4565
0.454
0.4535
0.4535
0.453
0.4535
0.4525
0.453
0.452
0.4505
0.4515
0.4515
0.4505
0.45
0.4505
0.4505
0.4495
0.452
0.4525
0.451
0.4515
0.451
0.4505
0.4505
0.4525
0.4505
0.4515
0.452
0.4545
0.4505
0.4515
0.4515
0.4515
0.4505
0.4515
0.448
0.4495
0.4445
0.448
0.4435
0.45
0.446
0.445
0.4455
0.4455
0.447
0.447
0.446
0.4465
0.447
0.448
0.4495
0.45
0.4515
0.451
0.4515
0.4535
0.452
0.4515
0.453
0.4535
0.4525
0.454
0.4535
0.4525
0.4505
0.453
0.4535
0.4545
0.4545
0.454
0.454
0.455
0.455
0.4535
0.4535
0.456
0.4535
0.454
0.452
0.4525
0.4525
0.4525
0.4525
0.452
0.4525
0.4505
0.451
0.451
0.45
0.4485
0.4515
0.451
0.453
0.4515
0.451
0.454
0.451
0.4525
0.4525
0.452
0.452
0.452
0.4515
0.454
0.454
0.4535
0.453
0.454
0.4525
0.4515
0.4505
0.452
0.4535
0.4535
0.4535
0.4575
0.4815
0.5275
0.6235
0.761
0.9570000000000001
1.2455
1.4045
1.4155
1.2715
1.1275
0.9975
0.8965
0.8165
0.7535000000000001
0.708
0.6835
0.6815
0.729
0.801
0.8305
0.807
0.7525000000000001
0.6895
0.6365000000000001
0.593
0.5615
0.5365
0.517
0.5025000000000001
0.4885
0.47950000000000004
0.47200000000000003
0.466
0.462
0.4595
0.457
0.455
0.454
0.4535
0.4535
0.452
0.453
0.4525
0.4515
0.4505
0.452
0.449
0.4495
0.4465
0.446
0.4445
0.444
0.4435
0.444
0.444
0.445
0.4465
0.448
0.4485
0.4485
0.4485
0.45
0.4505
0.4505
0.4505
0.4505
0.4515
0.4515
0.4525
0.4525
0.4515
0.4515
0.4515
0.4525
0.4525
0.4515
0.4515
0.4515
0.452
0.451
0.4515
0.4525
0.4535
0.4525
0.453
0.452
0.4515
0.4525
0.4515
0.451
0.4505
0.4495
0.449
0.4475
0.4465
0.4465
0.447
0.4465
0.4455
0.447
0.4485
0.449
0.45
0.452
0.4515
0.4515
0.4525
0.453
0.4535
0.4535
0.454
0.454
0.4545
0.454
0.455
0.4555
0.455
0.4545
0.455
0.455
0.455
0.4545
0.4545
0.455
0.4555
0.455
0.4555
0.4555
0.4555
0.4555
0.4555
0.454
0.4555
0.4555
0.455
0.455
0.455
0.4555
0.456
0.4555
0.4565
0.4565
0.4565
0.4565
0.456
0.4555
0.4565
0.457
0.457
0.4565
0.4575
0.458
0.4585
0.4575
0.4575
0.458
0.4585
0.458
0.457
0.457
0.4555
0.456
0.4545
0.454
0.453
0.4535
0.453
0.453
0.4545
0.4545
0.4535
0.462
0.5065000000000001
0.5845
0.714
0.9675
1.2530000000000001
1.409
1.3775
1.1915
1.0435
0.9215
0.8255
0.7505000000000001
0.708
0.7065
0.725
0.739
0.7555000000000001
0.7575000000000001
0.725
0.6765
0.6315000000000001
0.591
0.561
0.5365
0.522
0.5115000000000001
0.5005000000000001
0.487
0.47950000000000004
0.46950000000000003
0.4645
0.46
0.4565
0.454
0.4515
0.45
0.449
0.4495
0.4485
0.4485
0.449
0.448
0.4475
0.4495
0.4485
0.4475
0.447
0.4455
0.448
0.449
0.4455
0.449
0.4485
0.4445
0.4455
0.447
0.445
0.443
0.4425
0.443
0.442
0.444
0.4465
0.4445
0.4445
0.447
0.445
0.4455
0.4445
0.445
0.447
0.4465
0.446
0.448
0.4455
0.4495
0.4475
0.447
0.4465
0.4445
0.447
0.4465
0.441
0.4425
0.4465
0.4455
0.445
0.446
0.447
0.449
0.448
0.4475
0.448
0.4475
0.4475
0.4495
0.449
0.4505
0.4495
0.4495
0.4505
0.4505
0.4515
0.451
0.4515
0.452
0.453
0.454
0.4555
0.455
0.4565
0.4565
0.456
0.4555
0.457
0.4545
0.4555
0.4555
0.455
0.455
0.4545
0.4515
0.4515
0.4515
0.453
0.453
0.4555
0.4555
0.4555
0.4565
0.4575
0.4575
0.4575
0.457
0.4575
0.458
0.4555
0.457
0.4585
0.4555
0.457
0.4545
0.455
0.4525
0.451
0.4525
0.4565
0.459
0.465
0.47100000000000003
0.5035000000000001
0.5845
0.6755
0.8385
1.0955
1.2795
1.3115
1.1825
1.0455
0.9285
0.8335
0.7615000000000001
0.7175
0.71
0.7495
0.8275
0.878
0.87
0.8175
0.749
0.685
0.632
0.5915
0.5585
0.535
0.515
0.5
0.4885
0.47850000000000004
0.47050000000000003
0.4645
0.4605
0.459
0.456
0.454
0.453
0.451
0.452
0.4515
0.4505
0.4505
0.45
0.4495
0.4495
0.4515
0.451
0.45
0.4495
0.4505
0.4495
0.4495
0.4495
0.4485
0.4485
0.45
0.4495
0.4485
0.4485
0.4505
0.45
0.4485
0.4485
0.449
0.4475
0.448
0.4485
0.449
0.45
0.4505
0.4505
0.4505
0.4515
0.451
0.451
0.453
0.451
0.4515
0.4515
0.4515
0.4515
0.451
0.452
0.452
0.452
0.452
0.452
0.4515
0.4525
0.4525
0.4525
0.452
0.4525
0.453
0.453
0.4525
0.453
0.4515
0.4495
0.4475
0.4495
0.45
0.4495
0.451
0.4515
0.4525
0.453
0.4525
0.453
0.4535
0.4535
0.454
0.4545
0.454
0.4525
0.4525
0.4545
0.4525
0.4535
0.4525
0.453
0.4535
0.4525
0.453
0.4545
0.453
0.4525
0.4525
0.4535
0.4505
0.452
0.449
0.4495
0.449
0.448
0.447
0.4495
0.449
0.4485
0.4485
0.448
0.4495
0.4485
0.4475
0.4475
0.448
0.4475
0.449
0.449
0.4495
0.449
0.45
0.4515
0.4525
0.4515
0.4515
0.4535
0.453
0.4535
0.4525
0.4525
0.451
0.4495
0.4495
0.4495
0.4495
0.45
0.4505
0.4495
0.4605
0.5035000000000001
0.5640000000000001
0.67
0.9295
1.2590000000000001
1.399
1.3215000000000001
1.119
0.961
0.843
0.75
0.753
0.8135
0.923
0.9935
0.9425
0.858
0.7685
0.6950000000000001
0.6315000000000001
0.59
0.559
0.535
0.5115000000000001
0.4935
0.466
0.446
0.4415
0.4395
0.442
0.4395
0.437
0.44
0.4395
0.4405
0.442
0.44
0.4395
0.4385
0.4395
0.4415
0.443
0.4445
0.4405
0.4425
0.442
0.4405
0.4425
0.443
0.444
0.4425
0.4445
0.4455
0.445
0.4455
0.4465
0.4465
0.4475
0.4485
0.448
0.449
0.4495
0.4495
0.449
0.4495
0.4495
0.45
0.4495
0.4495
0.4495
0.4495
0.4505
0.4495
0.4495
0.4505
0.451
0.449
0.45
0.45
0.4505
0.4485
0.4475
0.4465
0.445
0.445
0.4445
0.4435
0.4435
0.4425
0.4435
0.443
0.4445
0.4445
0.445
0.4455
0.4475
0.4485
0.4495
0.4505
0.4505
0.451
0.4515
0.451
0.4525
0.452
0.452
0.4525
0.4525
0.4525
0.4525
0.4525
0.453
0.453
0.453
0.453
0.4535
0.453
0.4525
0.453
0.4535
0.453
0.4545
0.4535
0.453
0.454
0.454
0.4535
0.4535
0.454
0.4535
0.455
0.4535
0.4535
0.4535
0.4535
0.4525
0.453
0.454
0.4535
0.454
0.454
0.455
0.4545
0.4535
0.4535
0.4525
0.4515
0.4515
0.4515
0.4525
0.4535
0.455
0.455
0.462
0.5145
0.6195
0.7235
0.8635
1.0405
1.1455
1.143
1.06
0.934
0.8375
0.7615000000000001
0.6955
0.646
0.6095
0.5955
0.6115
0.6525
0.7020000000000001
0.7265
0.7115
0.6715
0.6275000000000001
0.5845
0.555
0.5335
0.5185
0.506
0.4935
0.4825
0.47450000000000003
0.46900000000000003
0.4635
0.4595
0.4575
0.455
0.4535
0.453
0.452
0.4515
0.451
0.4515
0.4505
0.451
0.4505
0.4495
0.451
0.45
0.4495
0.45
0.45
0.4495
0.45
0.4505
0.4495
0.4495
0.4495
0.4505
0.4505
0.451
0.45
0.4495
0.4495
0.4495
0.449
0.4485
0.4475
0.4465
0.4445
0.445
0.448
0.4465
0.448
0.446
0.448
0.4435
0.4435
0.4435
0.4445
0.4425
0.445
0.445
0.4445
0.446
0.4445
0.4455
0.4475
0.4435
0.4395
0.449
0.4455
0.446
0.4465
0.447
0.448
0.447
0.4475
0.4455
0.443
0.446
0.4455
0.448
0.448
0.448
0.4495
0.45
0.4525
0.4505
0.452
0.4505
0.449
0.451
0.4495
0.4485
0.4475
0.4495
0.4495
0.4515
0.449
0.451
0.45
0.4515
0.452
0.453
0.4515
0.4515
0.453
0.452
0.4515
0.453
0.4525
0.4555
0.4505
0.452
0.451
0.4505
0.449
0.451
0.45
0.4505
0.4515
0.4485
0.453
0.4525
0.453
0.452
0.452
0.4505
0.4505
0.4465
0.4445
0.4445
0.4455
0.4495
0.467
0.5690000000000001
0.7555000000000001
0.9635
1.245
1.352
1.2775
1.076
0.973
0.9435
0.903
0.8425
0.7965
0.7755
0.8015
0.855
0.8795000000000001
0.8525
0.7925
0.7265
0.667
0.6205
0.579
0.5505
0.5255
0.509
0.4925
0.4815
0.47350000000000003
0.466
0.4615
0.459
0.4565
0.4545
0.4525
0.451
0.4495
0.4485
0.4465
0.4455
0.4445
0.4445
0.446
0.4455
0.446
0.4475
0.447
0.4465
0.447
0.4475
0.447
0.447
0.4475
0.4475
0.4475
0.4475
0.448
0.448
0.448
0.448
0.448
0.4485
0.4495
0.4485
0.449
0.449
0.4485
0.4475
0.448
0.448
0.4495
0.449
0.448
0.448
0.449
0.4505
0.4475
0.4485
0.4485
0.4455
0.4475
0.4465
0.447
0.4475
0.4485
0.449
0.449
0.449
0.4495
0.4495
0.4495
0.45
0.45
0.4505
0.4495
0.4495
0.4505
0.45
0.45
0.4505
0.4505
0.451
0.451
0.451
0.4515
0.451
0.451
0.451
0.451
0.451
0.451
0.45
0.4485
0.448
0.447
0.447
0.4475
0.4465
0.444
0.445
0.4455
0.447
0.4475
0.45
0.45
0.451
0.452
0.452
0.4525
0.4525
0.4525
0.4535
0.4535
0.4535
0.4535
0.453
0.4535
0.454
0.4535
0.4535
0.454
0.4535
0.4545
0.4545
0.4545
0.4535
0.454
0.455
0.454
0.4545
0.455
0.4565
0.4555
0.4555
0.4555
0.455
0.455
0.4545
0.454
0.453
0.4515
0.4515
0.452
0.4515
0.4515
0.4515
0.4515
0.4515
0.4545
0.46950000000000003
0.5395
0.659
0.846
1.1495
1.3305
1.3605
1.2665
1.09
0.961
0.8755000000000001
0.81
0.7625000000000001
0.7425
0.741
0.735
0.73
0.7245
0.6990000000000001
0.6605
0.6185
0.5825
0.5535
0.53
0.514
0.5
0.4915
0.485
0.47400000000000003
0.4665
0.4615
0.456
0.453
0.4525
0.4495
0.4475
0.4485
0.447
0.446
0.446
0.4445
0.446
0.4465
0.445
0.4445
0.445
0.443
0.445
0.4455
0.446
0.445
0.4455
0.4445
0.4455
0.447
0.446
0.4455
0.4455
0.446
0.447
0.4455
0.4435
0.4465
0.445
0.446
0.4455
0.444
0.4465
0.446
0.448
0.4465
0.4465
0.445
0.4455
0.4445
0.4475
0.4475
0.443
0.445
0.4475
0.448
0.441
0.4455
0.442
0.4425
0.4455
0.4445
0.45
0.448
0.4455
0.448
0.442
0.446
0.446
0.4455
0.4445
0.4455
0.4465
0.4465
0.4455
0.447
0.449
0.446
0.45
0.4495
0.4485
0.4495
0.447
0.4495
0.45
0.4495
0.4505
0.45
0.4515
0.4525
0.453
0.4535
0.454
0.454
0.4545
0.4555
0.4545
0.455
0.4555
0.4555
0.4555
0.4555
0.455
0.455
0.455
0.4555
0.4555
0.4565
0.456
0.4565
0.4575
0.4565
0.456
0.455
0.456
0.4565
0.4565
0.454
0.453
0.451
0.451
0.4505
0.4515
0.4525
0.4535
0.457
0.4615
0.47100000000000003
0.5115000000000001
0.5740000000000001
0.6815
0.8895000000000001
1.1055
1.2205
1.193
1.0245
0.9025
0.806
0.7395
0.7105
0.768
0.8715
0.9675
1.01
0.9805
0.9055
0.8175
0.737
0.674
0.6295000000000001
0.596
0.5705
0.545
0.525
0.507
0.4925
0.4825
0.47400000000000003
0.4675
0.464
0.4585
0.4555
0.454
0.4525
0.4515
0.45
0.449
0.4485
0.449
0.4485
0.448
0.448
0.449
0.4475
0.4475
0.4475
0.4475
0.447
0.447
0.447
0.4475
0.4475
0.4475
0.4475
0.4485
0.4485
0.449
0.4485
0.448
0.4485
0.448
0.4485
0.448
0.448
0.4485
0.4485
0.449
0.449
0.449
0.4485
0.45
0.452
0.4495
0.448
0.4495
0.4495
0.4495
0.4475
0.447
0.446
0.4475
0.4485
0.4495
0.449
0.449
0.4495
0.451
0.453
0.4495
0.451
0.4505
0.45
0.449
0.449
0.446
0.4455
0.4455
0.4445
0.448
0.4495
0.449
0.4495
0.4505
0.4505
0.4515
0.4515
0.4515
0.4515
0.4515
0.451
0.4515
0.4515
0.4515
0.4525
0.4515
0.4525
0.453
0.453
0.4515
0.4505
0.4515
0.451
0.4515
0.4515
0.4515
0.4515
0.452
0.4525
0.452
0.453
0.453
0.4525
0.453
0.4535
0.452
0.453
0.4535
0.453
0.453
0.4525
0.452
0.453
0.453
0.453
0.4525
0.453
0.453
0.453
0.4535
0.452
0.4525
0.453
0.453
0.452
0.453
0.453
0.452
0.4505
0.4495
0.446
0.4465
0.4485
0.4495
0.4505
0.45
0.4555
0.47100000000000003
0.529
0.604
0.7215
0.93
1.1035
1.1455
1.083
0.9295
0.8335
0.766
0.7095
0.6645
0.6525
0.6825
0.7675000000000001
0.8695
0.896
0.8595
0.786
0.7065
0.6425
0.598
0.5735
0.5445
0.518
0.4995
0.4835
0.46900000000000003
0.4595
0.4535
0.4505
0.4495
0.4475
0.446
0.446
0.445
0.4435
0.442
0.4395
0.441
0.4435
0.442
0.439
0.441
0.4405
0.44
0.4395
0.4405
0.443
0.443
0.4435
0.444
0.4435
0.445
0.443
0.444
0.445
0.4465
0.446
0.4475
0.4475
0.448
0.4475
0.448
0.4475
0.4495
0.4495
0.4505
0.4505
0.4495
0.4495
0.4505
0.451
0.4505
0.451
0.4515
0.4515
0.453
0.4525
0.4515
0.452
0.4505
0.45
0.4505
0.4515
0.4495
0.4505
0.4505
0.45
0.451
0.4515
0.451
0.4515
0.4515
0.4525
0.4535
0.453
0.4525
0.454
0.4535
0.4545
0.4545
0.4535
0.4535
0.454
0.4535
0.454
0.453
0.453
0.4535
0.4545
0.4535
0.453
0.4515
0.451
0.45
0.4505
0.4495
0.4485
0.4475
0.447
0.4475
0.4495
0.451
0.4525
0.4535
0.4525
0.4535
0.4535
0.455
0.4545
0.4555
0.4565
0.4555
0.4555
0.4565
0.4565
0.456
0.4555
0.4565
0.4555
0.456
0.4555
0.4555
0.4545
0.4535
0.453
0.452
0.4525
0.454
0.4545
0.4555
0.4555
0.46
0.4835
0.5215
0.5855
0.715
0.9305
1.0955
1.1335
1.0715000000000001
0.9580000000000001
0.839
0.762
0.709
0.6655
0.6325000000000001
0.6255000000000001
0.6675
0.7505000000000001
0.8485
0.8915000000000001
0.866
0.803
0.733
0.67
0.62
0.584
0.561
0.5415
0.5255
0.509
0.4955
0.4855
0.47650000000000003
0.47050000000000003
0.465
0.461
0.458
0.4565
0.454
0.454
0.4525
0.4515
0.4515
0.4505
0.449
0.4495
0.4495
0.4495
0.4475
0.4475
0.4485
0.448
0.4495
0.4505
0.45
0.4495
0.4495
0.4495
0.45
0.45
0.4505
0.4495
0.449
0.4475
0.4485
0.449
0.4495
0.45
0.4495
0.4505
0.451
0.4525
0.4515
0.4515
0.451
0.4505
0.4515
0.4515
0.45
0.451
0.4505
0.4505
0.4505
0.4515
0.451
0.4505
0.45
0.4495
0.4495
0.4515
0.45
0.4515
0.4505
0.4495
0.4485
0.446
0.4475
0.4485
0.449
0.4475
0.449
0.4465
0.4485
0.445
0.445
0.443
0.4445
0.443
0.445
0.445
0.445
0.4445
0.4495
0.4495
0.4475
0.4485
0.449
0.4495
0.4505
0.4515
0.451
0.451
0.452
0.4515
0.4525
0.452
0.4515
0.4535
0.453
0.4515
0.4515
0.452
0.453
0.4535
0.453
0.455
0.4545
0.4545
0.4535
0.453
0.4515
0.4535
0.4535
0.4545
0.4525
0.4535
0.4535
0.454
0.4535
0.453
0.453
0.4545
0.4505
0.4515
0.4505
0.4515
0.4505
0.4485
0.4495
0.446
0.448
0.4465
0.446
0.447
0.4515
1.1565
0.928
0.774
0.7375
0.7225
0.721
0.7255
0.7545000000000001
0.74
0.6915
0.6385000000000001
0.589
0.5535
0.527
0.5085000000000001
0.492
0.4805
0.47200000000000003
0.4665
0.462
0.4585
0.4565
0.4535
0.453
0.4515
0.4505
0.4505
0.449
0.4485
0.4485
0.4495
0.45
0.4495
0.45
0.4495
0.4485
0.45
0.446
0.4475
0.447
0.446
0.445
0.443
0.4435
0.4445
0.4455
0.4455
0.4465
0.4465
0.446
0.4465
0.447
0.448
0.4485
0.4495
0.45
0.4515
0.4515
0.4515
0.4515
0.452
0.452
0.453
0.4515
0.4515
0.4515
0.452
0.453
0.4525
0.452
0.4525
0.453
0.4525
0.453
0.4525
0.4535
0.4535
0.4535
0.454
0.4535
0.4535
0.453
0.4535
0.4535
0.4535
0.453
0.452
0.4535
0.454
0.454
0.4545
0.454
0.4545
0.455
0.4545
0.4545
0.4545
0.4545
0.4555
0.4555
0.456
0.455
0.455
0.4545
0.455
0.4535
0.453
0.4525
0.4535
0.453
0.4535
0.4535
0.4545
0.4545
0.4545
0.4555
0.4555
0.456
0.4555
0.4555
0.4545
0.4555
0.4555
0.4555
0.4565
0.456
0.4565
0.456
0.4565
0.457
0.4565
0.4575
0.4575
0.4565
0.4565
0.4565
0.457
0.4565
0.4565
0.4575
0.4575
0.4575
0.4575
0.4575
0.4575
0.457
0.4575
0.457
0.456
0.4555
0.4545
0.454
0.453
0.4525
0.454
0.455
0.4565
0.4555
0.459
0.4825
0.5395
0.632
0.8315
1.088
1.2425
1.2485
1.1515
0.9955
0.887
0.8065
0.7415
0.6890000000000001
0.655
0.6435
0.653
0.682
0.6975
0.6865
0.6535
0.6155
0.581
0.5535
0.531
0.5175
0.507
0.499
0.49
0.4815
0.47400000000000003
0.4675
0.4625
0.4605
0.458
0.4565
0.455
0.4535
0.4525
0.4515
0.4515
0.4495
0.4505
0.4495
0.4495
0.449
0.4495
0.4495
0.45
0.448
0.45
0.45
0.45
0.4495
0.4495
0.4505
0.449
0.4495
0.4485
0.45
0.451
0.4485
0.448
0.45
0.45
0.4495
0.4515
0.4515
0.4505
0.4505
0.4495
0.4515
0.452
0.451
0.4515
0.4505
0.4515
0.451
0.4495
0.4525
0.4515
0.452
0.451
0.454
0.451
0.4525
0.4485
0.453
0.4515
0.451
0.4495
0.451
0.453
0.449
0.449
0.4495
0.4495
0.4495
0.4495
0.4505
0.4495
0.45
0.4515
0.4545
0.4505
0.4525
0.451
0.4515
0.4525
0.4505
0.448
0.4505
0.45
0.451
0.451
0.449
0.4495
0.4495
0.4495
0.449
0.45
0.452
0.453
0.452
0.4525
0.45
0.454
0.4525
0.4535
0.453
0.454
0.4545
0.457
0.4565
0.4565
0.457
0.4575
0.4575
0.458
0.459
0.4585
0.4585
0.458
0.457
0.4565
0.456
0.4555
0.455
0.455
0.4575
0.459
0.4595
0.4635
0.47550000000000003
0.4985
0.5225
0.5885
0.7435
0.9035
0.9845
0.9695
0.9015
0.7995
0.7355
0.6815
0.6385000000000001
0.612
0.6225
0.6655
0.7155
0.7515000000000001
0.7535000000000001
0.7145
0.6655
0.6175
0.5795
0.5435
0.5265
0.5085000000000001
0.4935
0.4815
0.47050000000000003
0.4665
0.4605
0.4595
0.4575
0.4565
0.4565
0.456
0.4565
0.4555
0.456
0.4555
0.456
0.4555
0.4565
0.4565
0.4555
0.4555
0.4565
0.456
0.4565
0.4555
0.4555
0.456
0.4565
0.457
0.4565
0.4555
0.455
0.4565
0.456
0.4575
0.4565
0.4565
0.4565
0.457
0.457
0.4575
0.4575
0.458
0.4575
0.4565
0.4565
0.457
0.4555
0.4575
0.458
0.4575
0.4585
0.458
0.4575
0.458
0.4575
0.4585
0.4585
0.4585
0.4575
0.458
0.4585
0.46
0.4605
0.4595
0.46
0.4595
0.4595
0.461
0.46
0.4595
0.459
0.459
0.4595
0.4605
0.459
0.46
0.46
0.4605
0.4595
0.459
0.4585
0.458
0.4575
0.4585
0.459
0.4595
0.4595
0.4595
0.4595
0.46
0.4605
0.4605
0.46
0.4605
0.4595
0.461
0.4605
0.461
0.4615
0.461
0.4605
0.461
0.4625
0.46
0.4585
0.458
0.46
0.4605
0.458
0.459
0.4585
0.4595
0.4595
0.4605
0.4595
0.46
0.4605
0.4605
0.4605
0.46
0.46
0.461
0.4615
0.4605
0.4595
0.4615
0.462
0.4595
0.4615
0.4615
0.4615
0.4595
0.46
0.4585
0.459
0.458
0.456
0.4555
0.4555
0.455
0.455
0.4565
0.457
0.468
0.5275
0.6225
0.7225
0.905
1.1055
1.1915
1.1545
1.054
0.9510000000000001
0.8485
0.7745
0.715
0.6655
0.6385000000000001
0.6515
0.715
0.7995
0.85
0.8445
0.793
0.7295
0.668
0.6205
0.5845
0.5575
0.5375
0.5205
0.504
0.491
0.483
0.47400000000000003
0.4685
0.4635
0.4595
0.4555
0.454
0.4545
0.4505
0.4525
0.4505
0.4505
0.45
0.4515
0.45
0.452
0.4525
0.453
0.454
0.449
0.45
0.4515
0.451
0.4465
0.4475
0.4495
0.449
0.4495
0.449
0.4495
0.4485
0.45
0.4495
0.4505
0.451
0.4495
0.4495
0.452
0.451
0.453
0.4535
0.4545
0.455
0.455
0.4555
0.457
0.4575
0.458
0.4575
0.459
0.4595
0.4585
0.459
0.458
0.4575
0.4575
0.4585
0.4585
0.459
0.459
0.4595
0.4595
0.4595
0.46
0.4605
0.4605
0.461
0.4625
0.4615
0.4605
0.4605
0.4605
0.4615
0.461
0.461
0.4605
0.4615
0.461
0.461
0.461
0.4615
0.4605
0.461
0.4615
0.4625
0.4625
0.462
0.4615
0.4615
0.4625
0.4625
0.463
0.4605
0.46
0.459
0.458
0.46
0.4595
0.4595
0.4595
0.461
0.4605
0.4615
0.4625
0.4615
0.462
0.463
0.4635
0.463
0.463
0.463
0.463
0.4625
0.462
0.4615
0.4615
0.461
0.4605
0.4595
0.459
0.46
0.4595
0.4595
0.4605
0.461
0.4635
0.4815
0.533
0.621
0.7605000000000001
0.994
1.1455
1.1665
1.0895
0.9755
0.8495
0.7875
0.7375
0.6910000000000001
0.6495
0.626
0.6445
0.7195
0.792
0.8115
0.7815
0.7275
0.671
0.622
0.5835
0.554
0.5335
0.518
0.507
0.4955
0.486
0.47900000000000004
0.47300000000000003
0.46950000000000003
0.4655
0.4625
0.462
0.4595
0.4585
0.4575
0.4575
0.4575
0.457
0.4565
0.4545
0.454
0.453
0.4545
0.454
0.4555
0.455
0.4555
0.4555
0.455
0.455
0.457
0.4565
0.4565
0.4565
0.457
0.4555
0.4565
0.456
0.4555
0.4555
0.4555
0.457
0.4575
0.457
0.457
0.457
0.457
0.4575
0.4575
0.4575
0.4575
0.4585
0.4585
0.459
0.4585
0.4585
0.458
0.459
0.4595
0.4585
0.4585
0.4595
0.4585
0.458
0.458
0.458
0.458
0.4575
0.458
0.4575
0.4575
0.4575
0.458
0.4575
0.4565
0.4555
0.454
0.4545
0.4555
0.4555
0.456
0.4565
0.456
0.457
0.4575
0.457
0.4585
0.4575
0.4555
0.4565
0.4545
0.4565
0.4585
0.455
0.455
0.456
0.4515
0.458
0.4555
0.4575
0.4545
0.455
0.455
0.455
0.454
0.457
0.457
0.4575
0.458
0.458
0.4585
0.4575
0.4585
0.4595
0.4595
0.4595
0.4585
0.459
0.458
0.4605
0.459
0.459
0.4545
0.458
0.4565
0.4585
0.4575
0.456
0.4605
0.4595
0.46
0.4595
0.458
0.458
0.4555
0.453
0.455
0.4555
0.4535
0.455
0.4605
0.4855
0.5700000000000001
0.7575000000000001
1.122
1.35
1.3305
1.19
0.973
0.6885
0.7295
0.6895
0.638
0.591
0.5575
0.5305
0.5105000000000001
0.4945
0.4815
0.47150000000000003
0.4635
0.4605
0.4575
0.455
0.455
0.4535
0.4525
0.4525
0.4535
0.4535
0.4525
0.453
0.4535
0.453
0.454
0.4545
0.4545
0.455
0.4545
0.4545
0.4555
0.456
0.4555
0.4555
0.4555
0.4565
0.4565
0.457
0.4575
0.457
0.4575
0.457
0.4575
0.4575
0.4575
0.457
0.457
0.4565
0.4575
0.4575
0.457
0.4575
0.457
0.458
0.4575
0.4575
0.4575
0.4575
0.4575
0.4575
0.458
0.4575
0.458
0.458
0.4575
0.4585
0.4585
0.459
0.458
0.4585
0.4585
0.459
0.459
0.459
0.459
0.4585
0.4585
0.459
0.4565
0.4555
0.455
0.456
0.4575
0.4575
0.458
0.458
0.4585
0.459
0.459
0.4595
0.4595
0.4595
0.4595
0.46
0.4605
0.46
0.46
0.4605
0.4615
0.461
0.4605
0.461
0.4605
0.461
0.4605
0.461
0.46
0.46
0.4605
0.4605
0.461
0.4605
0.46
0.4605
0.4605
0.4625
0.4615
0.4615
0.462
0.4615
0.462
0.4615
0.4615
0.461
0.4615
0.4605
0.461
0.461
0.4615
0.4595
0.46
0.4595
0.4615
0.4595
0.4605
0.4595
0.4605
0.46
0.4605
0.4615
0.4605
0.4595
0.459
0.458
0.4585
0.4605
0.4615
0.4615
0.4615
0.4635
0.4855
0.5465
0.6265000000000001
0.7735
1.0285
1.2385
1.3035
1.2305
1.1015
0.9485
0.8485
0.7775
0.7415
0.7225
0.717
0.738
0.7755
0.8055
0.8065
0.771
0.7175
0.666
0.621
0.5845
0.5555
0.534
0.5185
0.5055000000000001
0.4945
0.484
0.47750000000000004
0.47150000000000003
0.4665
0.463
0.461
0.4585
0.4575
0.4575
0.4555
0.4555
0.4545
0.454
0.454
0.453
0.4535
0.4535
0.453
0.453
0.453
0.453
0.4535
0.4535
0.4515
0.4515
0.452
0.453
0.454
0.4535
0.454
0.453
0.453
0.4525
0.4525
0.452
0.452
0.4545
0.4525
0.452
0.454
0.455
0.454
0.4525
0.453
0.454
0.4535
0.4535
0.455
0.4545
0.453
0.4535
0.4545
0.4525
0.4535
0.4515
0.454
0.4535
0.454
0.455
0.454
0.4555
0.456
0.456
0.452
0.4545
0.4515
0.4505
0.454
0.453
0.45
0.4515
0.453
0.452
0.452
0.4525
0.454
0.4565
0.4585
0.457
0.4575
0.454
0.456
0.4545
0.4515
0.4535
0.453
0.4535
0.4545
0.4555
0.4565
0.4565
0.456
0.4555
0.4545
0.456
0.456
0.457
0.4595
0.4585
0.4575
0.4565
0.4575
0.458
0.458
0.4595
0.4595
0.4605
0.46
0.4605
0.4605
0.463
0.463
0.4595
0.4605
0.459
0.4585
0.457
0.456
0.4565
0.457
0.457
0.4575
0.4585
0.46
0.4635
0.47150000000000003
0.5005000000000001
0.5605
0.6095
0.669
0.7855
0.8825000000000001
0.904
0.865
0.8015
0.7205
0.6655
0.6235
0.5945
0.593
0.615
0.662
0.7275
0.763
0.755
0.715
0.666
0.621
0.5845
0.5545
0.5315
0.514
0.4995
0.4895
0.4815
0.47450000000000003
0.47000000000000003
0.467
0.4635
0.461
0.4615
0.4595
0.455
0.4575
0.4545
0.454
0.4555
0.4535
0.455
0.455
0.4525
0.4535
0.4545
0.4555
0.456
0.4565
0.457
0.4575
0.4585
0.4595
0.4595
0.4595
0.4595
0.4585
0.4595
0.459
0.4595
0.4595
0.4595
0.4595
0.4595
0.46
0.4605
0.4605
0.4605
0.4595
0.4605
0.46
0.4605
0.461
0.4605
0.461
0.46
0.4605
0.461
0.461
0.4605
0.461
0.462
0.4615
0.4605
0.459
0.457
0.4565
0.457
0.458
0.4585
0.4595
0.4605
0.4605
0.461
0.4615
0.4605
0.4605
0.4605
0.4615
0.462
0.462
0.4615
0.462
0.4615
0.4625
0.463
0.4625
0.4625
0.4635
0.463
0.463
0.463
0.4625
0.462
0.4635
0.4625
0.463
0.4635
0.4625
0.4635
0.4635
0.4635
0.4635
0.464
0.4635
0.465
0.465
0.464
0.464
0.4655
0.4645
0.464
0.4645
0.4635
0.4635
0.465
0.4645
0.464
0.4635
0.4635
0.4645
0.465
0.465
0.4645
0.4635
0.4635
0.4635
0.464
0.464
0.4645
0.4635
0.4635
0.4645
0.4645
0.4635
0.4635
0.464
0.464
0.46
0.46
0.4595
0.4585
0.4565
0.4565
0.4565
0.4565
0.4565
0.4555
0.46900000000000003
0.541
0.6235
0.6985
0.841
1.0195
1.1175
1.0935
1.0125
0.927
0.8395
0.7815
0.729
0.6910000000000001
0.6835
0.7135
0.762
0.8265
0.8605
0.842
0.7835
0.7195
0.6615
0.6155
0.582
0.5670000000000001
0.558
0.541
0.527
0.5105000000000001
0.4975
0.4875
0.47900000000000004
0.47350000000000003
0.468
0.464
0.4595
0.4575
0.455
0.4565
0.4555
0.4525
0.4535
0.453
0.4535
0.4535
0.4535
0.4515
0.452
0.4515
0.4515
0.4515
0.453
0.4555
0.453
0.4535
0.4545
0.451
0.4535
0.455
0.4525
0.453
0.4515
0.4525
0.4515
0.4505
0.4535
0.454
0.4535
0.4535
0.4535
0.455
0.4545
0.4515
0.454
0.4555
0.4555
0.4555
0.4555
0.457
0.459
0.4585
0.459
0.4585
0.46
0.4605
0.4605
0.4605
0.4605
0.461
0.4605
0.4615
0.4615
0.4615
0.4615
0.4615
0.4615
0.462
0.4615
0.462
0.4625
0.4615
0.4625
0.4625
0.462
0.463
0.462
0.4625
0.4625
0.4635
0.4635
0.462
0.4625
0.463
0.463
0.463
0.4625
0.463
0.463
0.4635
0.4635
0.463
0.463
0.463
0.464
0.4645
0.4635
0.4635
0.4635
0.464
0.4635
0.464
0.4645
0.464
0.4635
0.4635
0.464
0.4645
0.4645
0.4635
0.4635
0.4645
0.4645
0.465
0.4635
0.4625
0.4625
0.4615
0.461
0.4605
0.461
0.462
0.462
0.4615
0.4615
0.4675
0.523
0.6475
0.7715
0.9155
1.083
1.1785
1.1635
1.0715000000000001
0.9510000000000001
0.8555
0.8195
0.779
0.732
0.6895
0.657
0.6475
0.655
0.6685
0.6625
0.6365000000000001
0.6015
0.5710000000000001
0.5435
0.5235
0.509
0.4995
0.494
0.489
0.482
0.47700000000000004
0.47250000000000003
0.46950000000000003
0.466
0.4645
0.4625
0.461
0.4605
0.4595
0.4595
0.4595
0.4595
0.4585
0.4595
0.4585
0.4595
0.4575
0.458
0.4585
0.4585
0.4585
0.4585
0.4585
0.4585
0.4575
0.459
0.4595
0.4595
0.459
0.4595
0.459
0.4585
0.459
0.4595
0.4595
0.4595
0.4595
0.4595
0.4595
0.4595
0.46
0.459
0.4605
0.46
0.4595
0.4605
0.4605
0.46
0.4605
0.4595
0.4605
0.4595
0.4605
0.4615
0.46
0.461
0.4615
0.4615
0.4625
0.4625
0.4625
0.4615
0.462
0.461
0.46
0.4605
0.46
0.4605
0.4605
0.46
0.4595
0.4605
0.4605
0.46
0.4605
0.461
0.4605
0.4605
0.46
0.4605
0.462
0.46
0.4605
0.4595
0.4595
0.4595
0.461
0.4595
0.4605
0.4595
0.459
0.4595
0.4585
0.4595
0.4595
0.4595
0.462
0.4595
0.4595
0.4605
0.461
0.46
0.462
0.457
0.4585
0.456
0.461
0.457
0.458
0.4565
0.459
0.458
0.458
0.46
0.4595
0.4615
0.461
0.4625
0.4625
0.462
0.4625
0.464
0.4615
0.462
0.4635
0.459
0.459
0.4575
0.4565
0.4555
0.457
0.4565
0.4555
0.4545
0.4555
0.4595
0.463
0.5345
0.6905
0.9555
1.252
1.3805
1.312
1.1165
0.9635
0.8965
0.8455
0.8435
0.871
0.8405
0.5885
0.5305
0.51
0.494
0.482
0.47300000000000003
0.4645
0.459
0.4555
0.4525
0.4515
0.452
0.453
0.4495
0.4475
0.449
0.4495
0.4495
0.4505
0.451
0.4505
0.4515
0.453
0.4535
0.4535
0.454
0.4545
0.454
0.455
0.455
0.4555
0.4555
0.4555
0.4555
0.4555
0.455
0.4555
0.4555
0.4555
0.4555
0.4555
0.456
0.4545
0.455
0.456
0.4555
0.4565
0.4565
0.456
0.456
0.4565
0.456
0.4565
0.457
0.457
0.4565
0.4555
0.4575
0.4575
0.4575
0.4575
0.456
0.4565
0.457
0.458
0.4575
0.4575
0.4575
0.457
0.4585
0.459
0.4575
0.455
0.4545
0.4555
0.456
0.456
0.457
0.4575
0.458
0.4585
0.4585
0.4585
0.4585
0.4585
0.4585
0.4595
0.4585
0.4605
0.4595
0.4595
0.4595
0.4595
0.4595
0.459
0.4595
0.4595
0.459
0.4595
0.4595
0.4595
0.459
0.4595
0.4595
0.4585
0.4595
0.4595
0.4595
0.4595
0.46
0.4605
0.4605
0.46
0.4605
0.4605
0.4615
0.461
0.4605
0.461
0.461
0.461
0.461
0.461
0.461
0.4615
0.4615
0.461
0.462
0.4625
0.462
0.4625
0.462
0.461
0.4605
0.46
0.4595
0.4585
0.4585
0.4585
0.458
0.4585
0.46
0.4595
0.4605
0.4655
0.48
0.501
0.5690000000000001
0.7405
0.92
1.0150000000000001
1.0075
0.9335
0.8445
0.7525000000000001
0.6875
0.6435
0.6145
0.6285000000000001
0.6955
0.755
0.7975
0.8055
0.7735
0.722
0.6675
0.6215
0.5845
0.556
0.534
0.5185
0.5045000000000001
0.4935
0.484
0.47800000000000004
0.47250000000000003
0.4685
0.465
0.4635
0.462
0.461
0.4595
0.4585
0.4575
0.457
0.4565
0.4575
0.457
0.457
0.4565
0.457
0.4565
0.4565
0.457
0.4565
0.4565
0.4565
0.456
0.4555
0.456
0.4555
0.455
0.4545
0.455
0.4555
0.455
0.455
0.4555
0.456
0.4555
0.455
0.4535
0.4575
0.4565
0.454
0.455
0.4555
0.4555
0.4555
0.456
0.4565
0.4565
0.4565
0.4555
0.456
0.457
0.4565
0.457
0.457
0.4575
0.457
0.457
0.456
0.4555
0.456
0.4565
0.456
0.4545
0.4545
0.4545
0.4525
0.455
0.454
0.4545
0.4515
0.455
0.4545
0.456
0.4545
0.4545
0.4565
0.455
0.4545
0.4535
0.457
0.4565
0.4555
0.4555
0.457
0.458
0.458
0.457
0.4575
0.4575
0.4575
0.456
0.454
0.4555
0.4555
0.457
0.4555
0.4555
0.4555
0.4585
0.4585
0.457
0.4585
0.4615
0.4595
0.461
0.4585
0.457
0.458
0.4585
0.4595
0.459
0.458
0.4595
0.4585
0.459
0.458
0.458
0.4585
0.459
0.4595
0.4605
0.4625
0.46950000000000003
0.4885
0.5395
0.596
0.6635
0.7575000000000001
0.8195
0.8205
0.7805
0.727
0.6765
0.6245
0.591
0.5630000000000001
0.546
0.549
0.587
0.652
0.7010000000000001
0.711
0.6835
0.6395000000000001
0.5965
0.5630000000000001
0.5375
0.519
0.506
0.4955
0.487
0.47950000000000004
0.47450000000000003
0.47050000000000003
0.4685
0.467
0.4655
0.4645
0.464
0.4645
0.463
0.4635
0.462
0.4625
0.4625
0.463
0.4635
0.4635
0.4625
0.4635
0.464
0.463
0.4615
0.4645
0.461
0.4595
0.46
0.458
0.458
0.462
0.4595
0.4585
0.4585
0.4585
0.459
0.4605
0.461
0.462
0.462
0.4625
0.462
0.464
0.4635
0.464
0.4645
0.4635
0.462
0.4625
0.4625
0.4625
0.463
0.4635
0.4635
0.4645
0.4645
0.4645
0.464
0.465
0.4645
0.466
0.465
0.465
0.4655
0.465
0.465
0.4655
0.4655
0.4655
0.4645
0.4655
0.465
0.465
0.465
0.4655
0.4655
0.466
0.4655
0.466
0.4655
0.4655
0.466
0.4655
0.4665
0.4665
0.4665
0.4665
0.466
0.466
0.4665
0.467
0.4665
0.4665
0.4665
0.467
0.467
0.467
0.467
0.4665
0.4665
0.467
0.467
0.4675
0.4675
0.467
0.4655
0.4675
0.4685
0.468
0.4675
0.4675
0.4685
0.4685
0.468
0.4675
0.468
0.468
0.468
0.4675
0.467
0.4675
0.4675
0.4675
0.4675
0.46900000000000003
0.4685
0.4675
0.4675
0.4675
0.467
0.4655
0.467
0.466
0.4645
0.4645
0.4635
0.462
0.463
0.4615
0.462
0.461
0.46
0.462
0.4655
0.4865
0.522
0.5825
0.715
0.8535
0.9135
0.8905000000000001
0.8075
0.738
0.6715
0.6305000000000001
0.596
0.5765
0.5645
0.5670000000000001
0.5865
0.6095
0.6165
0.604
0.58
0.5555
0.535
0.517
0.5025000000000001
0.4935
0.4855
0.4815
0.47150000000000003
0.467
0.4625
0.462
0.459
0.4605
0.46
0.4625
0.4625
0.4635
0.4615
0.462
0.4615
0.459
0.4585
0.4605
0.459
0.4595
0.46
0.459
0.462
0.4615
0.461
0.462
0.46
0.4595
0.4625
0.4625
0.463
0.4605
0.4635
0.4605
0.461
0.4635
0.4635
0.463
0.462
0.463
0.462
0.4635
0.4625
0.465
0.462
0.4615
0.4625
0.4605
0.4605
0.463
0.4635
0.4635
0.4635
0.4635
0.4645
0.4635
0.4645
0.4635
0.465
0.4655
0.467
0.4675
0.4665
0.467
0.4675
0.468
0.46900000000000003
0.4675
0.46950000000000003
0.46950000000000003
0.46900000000000003
0.4685
0.46900000000000003
0.46950000000000003
0.47000000000000003
0.46900000000000003
0.46950000000000003
0.46950000000000003
0.46950000000000003
0.46900000000000003
0.46900000000000003
0.46950000000000003
0.46950000000000003
0.46950000000000003
0.47050000000000003
0.46950000000000003
0.46950000000000003
0.46950000000000003
0.46950000000000003
0.46950000000000003
0.47000000000000003
0.47000000000000003
0.47000000000000003
0.46950000000000003
0.46900000000000003
0.47050000000000003
0.47050000000000003
0.47050000000000003
0.46950000000000003
0.47050000000000003
0.47000000000000003
0.47000000000000003
0.47000000000000003
0.46950000000000003
0.47100000000000003
0.47050000000000003
0.47050000000000003
0.47100000000000003
0.47100000000000003
0.47000000000000003
0.47150000000000003
0.47100000000000003
0.47100000000000003
0.47150000000000003
0.46950000000000003
0.47000000000000003
0.46950000000000003
0.4685
0.4675
0.467
0.4665
0.4675
0.4675
0.46900000000000003
0.46900000000000003
0.47100000000000003
0.4885
0.543
0.611
0.7155
0.873
0.991
1.0155
0.966
0.8835000000000001
0.8055
0.734
0.682
0.6415
0.6085
0.5855
0.5705
0.5670000000000001
0.595
0.6265000000000001
0.635
0.618
0.5915
0.5635
0.541
0.524
0.5115000000000001
0.501
0.4935
0.4875
0.4835
0.47850000000000004
0.47500000000000003
0.47150000000000003
0.47150000000000003
0.46900000000000003
0.4675
0.4675
0.4665
0.466
0.4665
0.4675
0.4675
0.4675
0.4675
0.467
0.4675
0.4675
0.468
0.4685
0.4675
0.4685
0.46950000000000003
0.46950000000000003
0.46900000000000003
0.4685
0.4685
0.4675
0.4685
0.4685
0.46900000000000003
0.4685
0.4685
0.467
0.4675
0.4675
0.4685
0.4685
0.4685
0.46950000000000003
0.46900000000000003
0.47000000000000003
0.47000000000000003
0.46950000000000003
0.47000000000000003
0.46950000000000003
0.47000000000000003
0.46950000000000003
0.46950000000000003
0.4685
0.46900000000000003
0.46900000000000003
0.47000000000000003
0.47000000000000003
0.46950000000000003
0.46950000000000003
0.46900000000000003
0.46950000000000003
0.46950000000000003
0.46950000000000003
0.46900000000000003
0.47050000000000003
0.47000000000000003
0.46950000000000003
0.46900000000000003
0.46950000000000003
0.47100000000000003
0.47050000000000003
0.46950000000000003
0.4675
0.4675
0.4685
0.4675
0.4685
0.4685
0.46950000000000003
0.46950000000000003
0.47000000000000003
0.46950000000000003
0.46950000000000003
0.46900000000000003
0.46950000000000003
0.46900000000000003
0.46950000000000003
0.46950000000000003
0.46950000000000003
0.47000000000000003
0.4685
0.46900000000000003
0.46900000000000003
0.46900000000000003
0.47050000000000003
0.46900000000000003
0.46900000000000003
0.4685
0.46950000000000003
0.4685
0.46900000000000003
0.467
0.46950000000000003
0.47000000000000003
0.47050000000000003
0.47000000000000003
0.4675
0.4685
0.46950000000000003
0.46900000000000003
0.47050000000000003
0.46950000000000003
0.46900000000000003
0.4675
0.46950000000000003
0.468
0.467
0.47000000000000003
0.46950000000000003
0.467
0.465
0.46900000000000003
0.4675
0.4655
0.467
0.466
0.465
0.4655
0.4645
0.4635
0.4655
0.465
0.4645
0.4675
0.4665
0.4665
0.4675
0.4675
0.46950000000000003
0.481
0.519
0.5805
0.7455
0.9415
1.0275
0.9925
0.8925000000000001
0.7905
0.6925
0.6415
0.6085
0.5955
0.5975
0.609
0.617
0.606
0.579
0.5475
0.53
0.513
0.499
0.493
0.487
0.4815
0.47500000000000003
0.47050000000000003
0.46900000000000003
0.47100000000000003
0.4655
0.466
0.4615
0.464
0.4615
0.4625
0.461
0.4635
0.4605
0.462
0.462
0.4645
0.467
0.465
0.4675
0.467
0.465
0.465
0.4665
0.467
0.467
0.467
0.465
0.467
0.4675
0.4655
0.465
0.466
0.467
0.468
0.4685
0.46950000000000003
0.47100000000000003
0.47150000000000003
0.47100000000000003
0.47150000000000003
0.47150000000000003
0.47150000000000003
0.47150000000000003
0.47150000000000003
0.47150000000000003
0.47200000000000003
0.47150000000000003
0.47100000000000003
0.47150000000000003
0.47150000000000003
0.47150000000000003
0.47150000000000003
0.47150000000000003
0.47150000000000003
0.47150000000000003
0.47200000000000003
0.47250000000000003
0.47200000000000003
0.47250000000000003
0.47150000000000003
0.47200000000000003
0.47250000000000003
0.47150000000000003
0.47300000000000003
0.47250000000000003
0.47250000000000003
0.47350000000000003
0.47300000000000003
0.47250000000000003
0.47250000000000003
0.47250000000000003
0.47150000000000003
0.47300000000000003
0.47250000000000003
0.47250000000000003
0.47300000000000003
0.47300000000000003
0.47350000000000003
0.47350000000000003
0.47350000000000003
0.47300000000000003
0.47400000000000003
0.47350000000000003
0.47400000000000003
0.47400000000000003
0.47450000000000003
0.47450000000000003
0.47350000000000003
0.47350000000000003
0.47350000000000003
0.47400000000000003
0.47350000000000003
0.47350000000000003
0.47450000000000003
0.47450000000000003
0.47350000000000003
0.47400000000000003
0.47350000000000003
0.47400000000000003
0.47350000000000003
0.47450000000000003
0.47400000000000003
0.47450000000000003
0.47450000000000003
0.47450000000000003
0.47450000000000003
0.47450000000000003
0.47550000000000003
0.47450000000000003
0.47500000000000003
0.47400000000000003
0.47350000000000003
0.47300000000000003
0.47250000000000003
0.47250000000000003
0.47200000000000003
0.47150000000000003
0.47000000000000003
0.47050000000000003
0.47100000000000003
0.47200000000000003
0.47250000000000003
0.47750000000000004
0.4845
0.5015000000000001
0.5545
0.6745
0.8195
0.905
0.9075
0.854
0.7835
0.7185
0.6575
0.6165
0.5905
0.5885
0.611
0.6455
0.6835
0.7000000000000001
0.6875
0.6555
0.62
0.587
0.56
0.541
0.526
0.515
0.5065000000000001
0.499
0.492
0.4875
0.4835
0.4805
0.47850000000000004
0.47750000000000004
0.47650000000000003
0.47550000000000003
0.47400000000000003
0.47350000000000003
0.47300000000000003
0.47300000000000003
0.47250000000000003
0.47250000000000003
0.47200000000000003
0.47150000000000003
0.47150000000000003
0.47150000000000003
0.47150000000000003
0.47150000000000003
0.47150000000000003
0.47100000000000003
0.47050000000000003
0.47150000000000003
0.47050000000000003
0.47100000000000003
0.47100000000000003
0.46900000000000003
0.46900000000000003
0.46950000000000003
0.46900000000000003
0.47050000000000003
0.4675
0.46950000000000003
0.47000000000000003
0.47050000000000003
0.46900000000000003
0.47000000000000003
0.47050000000000003
0.47150000000000003
0.47050000000000003
0.47100000000000003
0.47150000000000003
0.47050000000000003
0.47100000000000003
0.47100000000000003
0.47150000000000003
0.47150000000000003
0.47150000000000003
0.47150000000000003
0.47100000000000003
0.47250000000000003
0.47200000000000003
0.47350000000000003
0.47150000000000003
0.47200000000000003
0.47150000000000003
0.47400000000000003
0.47250000000000003
0.47250000000000003
0.47150000000000003
0.47250000000000003
0.47200000000000003
0.47250000000000003
0.47300000000000003
0.47250000000000003
0.47250000000000003
0.47300000000000003
0.47050000000000003
0.47000000000000003
0.46900000000000003
0.47100000000000003
0.47150000000000003
0.47200000000000003
0.47200000000000003
0.47250000000000003
0.47250000000000003
0.47400000000000003
0.47300000000000003
0.47300000000000003
0.47350000000000003
0.47350000000000003
0.47450000000000003
0.47300000000000003
0.47350000000000003
0.47350000000000003
0.47350000000000003
0.47350000000000003
0.47350000000000003
0.47350000000000003
0.47400000000000003
0.47450000000000003
0.47450000000000003
0.47350000000000003
0.47450000000000003
0.47500000000000003
0.47450000000000003
0.47550000000000003
0.47550000000000003
0.47500000000000003
0.47550000000000003
0.47450000000000003
0.47450000000000003
0.47550000000000003
0.47450000000000003
0.47400000000000003
0.47450000000000003
0.47550000000000003
0.47500000000000003
0.47550000000000003
0.47500000000000003
0.47500000000000003
0.47550000000000003
0.47550000000000003
0.47550000000000003
0.47550000000000003
0.47450000000000003
0.47400000000000003
0.47350000000000003
0.47350000000000003
0.47450000000000003
0.47350000000000003
0.47450000000000003
0.47450000000000003
0.47300000000000003
0.47350000000000003
0.47300000000000003
0.47200000000000003
0.47350000000000003
0.47100000000000003
0.47000000000000003
0.47150000000000003
0.47150000000000003
0.47300000000000003
0.47850000000000004
0.495
0.5245
0.5695
0.6875
0.8685
0.9815
0.9885
0.93
0.8525
0.781
0.705
0.6585
0.6235
0.6095
0.637
0.726
0.8075
0.8395
0.8135
0.7575000000000001
0.6915
0.6405
0.601
0.5735
0.554
0.5375
0.5225
0.5105000000000001
0.4995
0.491
0.485
0.4815
0.47800000000000004
0.47450000000000003
0.47000000000000003
0.46900000000000003
0.47000000000000003
0.47000000000000003
0.46900000000000003
0.46950000000000003
0.466
0.467
0.4675
0.4685
0.4665
0.4675
0.4675
0.4655
0.4655
0.4675
0.467
0.468
0.467
0.46950000000000003
0.4675
0.467
0.47100000000000003
0.4665
0.4685
0.464
0.4655
0.4645
0.468
0.4685
0.47000000000000003
0.467
0.46900000000000003
0.464
0.466
0.4665
0.466
0.4685
0.468
0.4675
0.47050000000000003
0.468
0.47100000000000003
0.47150000000000003
0.47250000000000003
0.47050000000000003
0.47150000000000003
0.47000000000000003
0.47100000000000003
0.4685
0.47100000000000003
0.47000000000000003
0.47350000000000003
0.47050000000000003
0.47100000000000003
0.47050000000000003
0.47050000000000003
0.46950000000000003
0.47050000000000003
0.47250000000000003
0.47350000000000003
0.47250000000000003
0.47300000000000003
0.47350000000000003
0.47400000000000003
0.47450000000000003
0.47400000000000003
0.47500000000000003
0.47550000000000003
0.47500000000000003
0.47550000000000003
0.47500000000000003
0.47450000000000003
0.47500000000000003
0.47550000000000003
0.47500000000000003
0.47600000000000003
0.47650000000000003
0.47550000000000003
0.47650000000000003
0.47550000000000003
0.47550000000000003
0.47550000000000003
0.47550000000000003
0.47600000000000003
0.47550000000000003
0.47650000000000003
0.47550000000000003
0.47600000000000003
0.47600000000000003
0.47600000000000003
0.47550000000000003
0.47650000000000003
0.47500000000000003
0.47500000000000003
0.47300000000000003
0.47250000000000003
0.47300000000000003
0.47250000000000003
0.47300000000000003
0.47300000000000003
0.47300000000000003
0.47150000000000003
0.47150000000000003
0.47100000000000003
0.47050000000000003
0.47050000000000003
0.46950000000000003
0.47050000000000003
0.47100000000000003
0.47500000000000003
0.4955
0.549
0.6195
0.7205
0.8515
0.9225
0.9155
0.8605
0.7935
0.7355
0.6995
0.6645
0.6375000000000001
0.6155
0.605
0.616
0.6565
0.6970000000000001
0.7115
0.6955
0.6625
0.625
0.591
0.5640000000000001
0.543
0.529
0.5175
0.5075000000000001
0.499
0.4935
0.4885
0.485
0.481
0.47900000000000004
0.47800000000000004
0.47700000000000004
0.47600000000000003
0.47550000000000003
0.47400000000000003
0.47350000000000003
0.47350000000000003
0.47400000000000003
0.47300000000000003
0.47200000000000003
0.47250000000000003
0.47250000000000003
0.47150000000000003
0.47200000000000003
0.47250000000000003
0.47250000000000003
0.47250000000000003
0.47250000000000003
0.47250000000000003
0.47200000000000003
0.47250000000000003
0.47200000000000003
0.47250000000000003
0.47300000000000003
0.47250000000000003
0.47300000000000003
0.47300000000000003
0.47250000000000003
0.47300000000000003
0.47300000000000003
0.47250000000000003
0.47250000000000003
0.47350000000000003
0.47350000000000003
0.47300000000000003
0.47300000000000003
0.47100000000000003
0.47350000000000003
0.47100000000000003
0.47150000000000003
0.47150000000000003
0.47250000000000003
0.47200000000000003
0.47300000000000003
0.47300000000000003
0.47300000000000003
0.47350000000000003
0.47350000000000003
0.47400000000000003
0.47450000000000003
0.47450000000000003
0.47450000000000003
0.47650000000000003
0.47400000000000003
0.47450000000000003
0.47350000000000003
0.47500000000000003
0.47350000000000003
0.47450000000000003
0.47350000000000003
0.47450000000000003
0.47300000000000003
0.47250000000000003
0.47100000000000003
0.47000000000000003
0.47100000000000003
0.47250000000000003
0.47300000000000003
0.47250000000000003
0.47350000000000003
0.47300000000000003
0.47300000000000003
0.47350000000000003
0.47450000000000003
0.47450000000000003
0.47450000000000003
0.47450000000000003
0.47450000000000003
0.47450000000000003
0.47350000000000003
0.47550000000000003
0.47400000000000003
0.47450000000000003
0.47450000000000003
0.47450000000000003
0.47400000000000003
0.47450000000000003
0.47450000000000003
0.47500000000000003
0.47350000000000003
0.47350000000000003
0.47400000000000003
0.47400000000000003
0.47450000000000003
0.47450000000000003
0.47350000000000003
0.47500000000000003
0.47350000000000003
0.47500000000000003
0.47500000000000003
0.47400000000000003
0.47350000000000003
0.47500000000000003
0.47500000000000003
0.47500000000000003
0.47550000000000003
0.47450000000000003
0.47650000000000003
0.47350000000000003
0.47450000000000003
0.47650000000000003
0.47550000000000003
0.47350000000000003
0.47350000000000003
0.47300000000000003
0.47600000000000003
0.47400000000000003
0.47350000000000003
0.47350000000000003
0.47250000000000003
0.47050000000000003
0.47100000000000003
0.47050000000000003
0.47250000000000003
0.47250000000000003
0.47150000000000003
0.47350000000000003
0.47300000000000003
0.47400000000000003
0.47950000000000004
0.5055000000000001
0.5740000000000001
0.715
0.9665
1.183
1.241
1.175
1.0555
0.9325
0.836
0.7375
0.68
0.6475
0.631
0.654
0.7125
0.7095
0.6675
0.6185
0.5755
0.547
0.523
0.5085000000000001
0.4985
0.4885
0.4825
0.47950000000000004
0.47450000000000003
0.47400000000000003
0.47300000000000003
0.47000000000000003
0.46900000000000003
0.4665
0.4655
0.4645
0.463
0.4645
0.4675
0.4655
0.4625
0.466
0.4655
0.4675
0.4675
0.4675
0.468
0.4685
0.4685
0.468
0.46950000000000003
0.4685
0.4675
0.465
0.465
0.4665
0.466
0.4665
0.4685
0.4685
0.47000000000000003
0.46900000000000003
0.46950000000000003
0.46950000000000003
0.4675
0.46900000000000003
0.46950000000000003
0.47000000000000003
0.47000000000000003
0.47050000000000003
0.47100000000000003
0.47150000000000003
0.47150000000000003
0.47100000000000003
0.47250000000000003
0.47300000000000003
0.47200000000000003
0.47150000000000003
0.47250000000000003
0.47300000000000003
0.47350000000000003
0.47350000000000003
0.47350000000000003
0.47250000000000003
0.47250000000000003
0.47300000000000003
0.47300000000000003
0.47350000000000003
0.47350000000000003
0.47350000000000003
0.47350000000000003
0.47350000000000003
0.47450000000000003
0.47300000000000003
0.47450000000000003
0.47500000000000003
0.47450000000000003
0.47400000000000003
0.47400000000000003
0.47400000000000003
0.47450000000000003
0.47450000000000003
0.47350000000000003
0.47450000000000003
0.47450000000000003
0.47500000000000003
0.47500000000000003
0.47450000000000003
0.47500000000000003
0.47500000000000003
0.47500000000000003
0.47500000000000003
0.47550000000000003
0.47600000000000003
0.47400000000000003
0.47450000000000003
0.47450000000000003
0.47450000000000003
0.47500000000000003
0.47500000000000003
0.47450000000000003
0.47550000000000003
0.47500000000000003
0.47400000000000003
0.47450000000000003
0.47500000000000003
0.47450000000000003
0.47500000000000003
0.47450000000000003
0.47500000000000003
0.47600000000000003
0.47550000000000003
0.47550000000000003
0.47550000000000003
0.47550000000000003
0.47550000000000003
0.47550000000000003
0.47550000000000003
0.47550000000000003
0.47550000000000003
0.47450000000000003
0.47450000000000003
0.47300000000000003
0.47300000000000003
0.47150000000000003
0.47100000000000003
0.47150000000000003
0.47250000000000003
0.47250000000000003
0.47200000000000003
0.47350000000000003
0.5005000000000001
0.5405
0.6045
0.7605000000000001
0.9535
1.0215
0.9725
0.8755000000000001
0.7825
0.7025
0.6675
0.6575
0.6715
0.7015
0.728
0.749
0.75
0.725
0.6855
0.644
0.6055
0.5745
0.5515
0.5325
0.519
0.5075000000000001
0.4985
0.492
0.4855
0.4835
0.47950000000000004
0.47700000000000004
0.47550000000000003
0.47400000000000003
0.47300000000000003
0.47250000000000003
0.47150000000000003
0.47150000000000003
0.47150000000000003
0.47100000000000003
0.47100000000000003
0.47150000000000003
0.47150000000000003
0.47050000000000003
0.47000000000000003
0.47050000000000003
0.47050000000000003
0.47150000000000003
0.47100000000000003
0.47050000000000003
0.47050000000000003
0.47100000000000003
0.47150000000000003
0.46950000000000003
0.47050000000000003
0.47150000000000003
0.47050000000000003
0.47050000000000003
0.47000000000000003
0.47200000000000003
0.47100000000000003
0.47000000000000003
0.47050000000000003
0.47100000000000003
0.47100000000000003
0.47000000000000003
0.47000000000000003
0.47050000000000003
0.47050000000000003
0.47050000000000003
0.47050000000000003
0.47050000000000003
0.47000000000000003
0.47100000000000003
0.47100000000000003
0.47050000000000003
0.47250000000000003
0.46950000000000003
0.47050000000000003
0.46950000000000003
0.46900000000000003
0.4685
0.4685
0.4685
0.4685
0.4685
0.467
0.4675
0.468
0.4685
0.47000000000000003
0.47050000000000003
0.47050000000000003
0.47100000000000003
0.47100000000000003
0.47150000000000003
0.47100000000000003
0.46950000000000003
0.468
0.46950000000000003
0.4665
0.4665
0.4665
0.467
0.4685
0.4685
0.47000000000000003
0.47150000000000003
0.47300000000000003
0.47100000000000003
0.47200000000000003
0.47150000000000003
0.47150000000000003
0.47150000000000003
0.47000000000000003
0.47150000000000003
0.47100000000000003
0.47000000000000003
0.47200000000000003
0.47250000000000003
0.47000000000000003
0.47150000000000003
0.47150000000000003
0.47150000000000003
0.47100000000000003
0.47150000000000003
0.47050000000000003
0.47150000000000003
0.47200000000000003
0.47100000000000003
0.47150000000000003
0.47350000000000003
0.47350000000000003
0.47100000000000003
0.47200000000000003
0.47150000000000003
0.47250000000000003
0.47300000000000003
0.47200000000000003
0.47100000000000003
0.47250000000000003
0.47250000000000003
0.47250000000000003
0.47450000000000003
0.47300000000000003
0.47250000000000003
0.47200000000000003
0.47300000000000003
0.47100000000000003
0.47100000000000003
0.46950000000000003
0.47050000000000003
0.4675
0.467
0.4665
0.4675
0.46950000000000003
0.468
0.46900000000000003
0.47650000000000003
0.488
0.5585
0.796
