0.5105000000000001
0.508
0.5105000000000001
0.508
0.51
0.512
0.51
0.5085000000000001
0.5115000000000001
0.5105000000000001
0.5075000000000001
0.51
0.512
0.511
0.5095000000000001
0.5065000000000001
0.5065000000000001
0.5115000000000001
0.5105000000000001
0.51
0.51
0.5105000000000001
0.5115000000000001
0.512
0.5125
0.512
0.512
0.5105000000000001
0.5085000000000001
0.5085000000000001
0.5075000000000001
0.5045000000000001
0.504
0.507
0.508
0.5085000000000001
0.509
0.512
0.5115000000000001
0.5115000000000001
0.511
0.5105000000000001
0.5105000000000001
0.512
0.5115000000000001
0.5115000000000001
0.5115000000000001
0.511
0.512
0.5115000000000001
0.513
0.513
0.513
0.5145
0.5145
0.5145
0.517
0.5175
0.516
0.517
0.517
0.5145
0.5175
0.5175
0.518
0.516
0.517
0.5175
0.5165
0.5155
0.5175
0.5175
0.5165
0.516
0.516
0.517
0.516
0.5155
0.515
0.5165
0.517
0.5175
0.518
0.516
0.5145
0.5175
0.5135
0.5165
0.5135
0.513
0.5125
0.512
0.5135
0.5095000000000001
0.5095000000000001
0.511
0.5115000000000001
0.512
0.5105000000000001
0.512
0.51
0.512
0.51
0.5105000000000001
0.51
0.513
0.514
0.5145
0.5095000000000001
0.513
0.5145
0.5115000000000001
0.51
0.5105000000000001
0.509
0.5095000000000001
0.509
0.511
0.512
0.511
0.512
0.515
0.5095000000000001
0.509
0.5085000000000001
0.5105000000000001
0.511
0.51
0.5115000000000001
0.5075000000000001
0.508
0.51
0.5075000000000001
0.51
0.5135
0.5145
0.5145
0.511
0.5135
0.5135
0.5145
0.5125
0.514
0.507
0.5075000000000001
0.509
0.509
0.512
0.5075000000000001
0.506
0.502
0.5075000000000001
0.5105000000000001
0.5095000000000001
0.513
0.5075000000000001
0.5115000000000001
0.51
0.5105000000000001
0.508
0.509
0.5095000000000001
0.51
0.512
0.5095000000000001
0.507
0.506
0.5035000000000001
0.509
0.5075000000000001
0.5105000000000001
0.508
0.5095000000000001
0.5045000000000001
0.5055000000000001
0.508
0.506
0.5055000000000001
0.51
0.51
0.509
0.509
0.5065000000000001
0.5115000000000001
0.5105000000000001
0.5105000000000001
0.512
0.5105000000000001
0.512
0.5115000000000001
0.512
0.51
0.509
0.508
0.5095000000000001
0.509
0.512
0.5075000000000001
0.5115000000000001
0.5105000000000001
0.5095000000000001
0.51
0.512
0.5115000000000001
0.5095000000000001
0.5125
0.51
0.5095000000000001
0.5095000000000001
0.5105000000000001
0.51
0.507
0.5115000000000001
0.514
0.514
0.514
0.5145
0.513
0.513
0.5125
0.5145
0.517
0.517
0.5145
0.5175
0.517
0.5175
0.5155
0.5185
0.519
0.5175
0.5165
0.5155
0.515
0.5155
0.5155
0.5165
0.517
0.518
0.519
0.5195
0.519
0.5195
0.5195
0.5185
0.5195
0.519
0.519
0.518
0.518
0.5195
0.5185
0.5205
0.518
0.5195
0.5195
0.5195
0.5195
0.5205
0.52
0.519
0.52
0.5205
0.518
0.5195
0.52
0.5205
0.52
0.5165
0.5185
0.518
0.5165
0.52
0.5185
0.517
0.518
0.519
0.5185
0.5185
0.5175
0.5175
0.5175
0.5165
0.517
0.5185
0.5185
0.5185
0.5185
0.5185
0.519
0.5195
0.5185
0.5195
0.5185
0.5185
0.5205
0.5185
0.518
0.519
0.5185
0.518
0.5165
0.5175
0.517
0.5175
0.5165
0.5165
0.5155
0.517
0.5175
0.5165
0.515
0.5175
0.516
0.5135
0.511
0.513
0.514
0.515
0.514
0.515
0.5165
0.5155
0.5165
0.5145
0.5155
0.5145
0.5145
0.5145
0.514
0.514
0.5145
0.5145
0.515
0.5155
0.5145
0.5145
0.515
0.5125
0.5135
0.5145
0.513
0.5145
0.5145
0.5145
0.5155
0.5145
0.5155
0.5155
0.5155
0.5185
0.5145
0.5165
0.516
0.514
0.515
0.5145
0.5145
0.5155
0.515
0.512
0.5165
0.515
0.5165
0.5145
0.513
0.512
0.515
0.514
0.513
0.513
0.514
0.5145
0.5135
0.5115000000000001
0.513
0.512
0.5095000000000001
0.511
0.5135
0.5115000000000001
0.512
0.513
0.51
0.509
0.515
0.5105000000000001
0.5085000000000001
0.5085000000000001
0.511
0.5105000000000001
0.5065000000000001
0.508
0.508
0.5115000000000001
0.512
0.511
0.5115000000000001
0.512
0.5125
0.5125
0.511
0.5085000000000001
0.5095000000000001
0.5095000000000001
0.5095000000000001
0.512
0.512
0.5125
0.513
0.5135
0.5135
0.515
0.5145
0.5155
0.516
0.5155
0.5155
0.517
0.517
0.5165
0.517
0.516
0.5155
0.5165
0.5175
0.517
0.5165
0.5175
0.517
0.5175
0.5165
0.517
0.517
0.5165
0.5175
0.5165
0.517
0.5165
0.5165
0.5165
0.5175
0.517
0.516
0.5165
0.5165
0.5165
0.5165
0.5165
0.5165
0.5165
0.5165
0.5165
0.5145
0.517
0.517
0.5165
0.515
0.515
0.514
0.5125
0.5145
0.5145
0.5135
0.5115000000000001
0.513
0.5125
0.51
0.509
0.5085000000000001
0.5095000000000001
0.5105000000000001
0.511
0.5105000000000001
0.5115000000000001
0.5115000000000001
0.512
0.511
0.511
0.511
0.5105000000000001
0.5105000000000001
0.512
0.511
0.511
0.51
0.5115000000000001
0.5105000000000001
0.5105000000000001
0.51
0.511
0.511
0.51
0.5095000000000001
0.5105000000000001
0.5125
0.5125
0.513
0.512
0.512
0.513
0.513
0.513
0.514
0.515
0.514
0.5155
0.5135
0.512
0.512
0.5115000000000001
0.5105000000000001
0.51
0.51
0.5105000000000001
0.512
0.5115000000000001
0.513
0.5135
0.5135
0.514
0.5145
0.5135
0.5135
0.5145
0.514
0.5135
0.514
0.514
0.514
0.5145
0.5135
0.5135
0.5155
0.514
0.5145
0.514
0.5145
0.515
0.513
0.5145
0.515
0.514
0.5135
0.513
0.5145
0.5145
0.5115000000000001
0.512
0.511
0.5125
0.513
0.5105000000000001
0.507
0.5085000000000001
0.509
0.51
0.5105000000000001
0.511
0.5115000000000001
0.5105000000000001
0.509
0.5095000000000001
0.509
0.5105000000000001
0.507
0.5055000000000001
0.509
0.5075000000000001
0.5105000000000001
0.509
0.5105000000000001
0.5105000000000001
0.512
0.511
0.513
0.511
0.512
0.5125
0.5115000000000001
0.514
0.512
0.5125
0.5125
0.5125
0.5145
0.513
0.513
0.5105000000000001
0.509
0.5065000000000001
0.508
0.5095000000000001
0.506
0.5065000000000001
0.5065000000000001
0.5065000000000001
0.5095000000000001
0.5105000000000001
0.5135
0.511
0.5115000000000001
0.5105000000000001
0.51
0.5075000000000001
0.5075000000000001
0.5055000000000001
0.5045000000000001
0.5075000000000001
0.506
0.5095000000000001
0.506
0.506
0.508
0.508
0.503
0.503
0.5045000000000001
0.5035000000000001
0.506
0.506
0.5065000000000001
0.506
0.5035000000000001
0.5055000000000001
0.5065000000000001
0.505
0.507
0.508
0.5075000000000001
0.5095000000000001
0.51
0.51
0.5125
0.5115000000000001
0.512
0.513
0.513
0.513
0.5135
0.5155
0.515
0.5155
0.515
0.5155
0.516
0.5155
0.515
0.5165
0.516
0.5155
0.5165
0.5145
0.5155
0.515
0.513
0.5125
0.513
0.514
0.5135
0.514
0.5145
0.5155
0.515
0.5145
0.515
0.5155
0.5155
0.5155
0.516
0.5155
0.5155
0.5165
0.5165
0.5155
0.5155
0.5155
0.5155
0.516
0.5165
0.5155
0.5145
0.5155
0.5135
0.5145
0.5135
0.513
0.512
0.5115000000000001
0.5115000000000001
0.5125
0.513
0.513
0.5135
0.5125
0.5145
0.514
0.5145
0.515
0.5155
0.515
0.5155
0.5155
0.5155
0.515
0.5145
0.5155
0.5155
0.5145
0.515
0.5155
0.5145
0.515
0.516
0.5155
0.516
0.5155
0.515
0.5145
0.5145
0.5155
0.5145
0.5145
0.515
0.5145
0.5135
0.5135
0.513
0.514
0.5135
0.514
0.5135
0.5135
0.516
0.514
0.5145
0.5145
0.5145
0.514
0.515
0.5145
0.5145
0.5145
0.5145
0.5155
0.5145
0.5145
0.515
0.5145
0.514
0.5145
0.5145
0.514
0.5145
0.514
0.5145
0.5145
0.5135
0.5145
0.5145
0.5145
0.515
0.5145
0.5145
0.5145
0.5145
0.5145
0.514
0.5155
0.5145
0.513
0.5125
0.511
0.51
0.5085000000000001
0.5085000000000001
0.5085000000000001
0.509
0.51
0.5095000000000001
0.5105000000000001
0.5095000000000001
0.5095000000000001
0.5085000000000001
0.5075000000000001
0.5085000000000001
0.5075000000000001
0.504
0.507
0.507
0.507
0.5055000000000001
0.5075000000000001
0.5065000000000001
0.5075000000000001
0.5075000000000001
0.506
0.505
0.507
0.5065000000000001
0.5085000000000001
0.5095000000000001
0.509
0.51
0.508
0.5085000000000001
0.5105000000000001
0.509
0.51
0.51
0.5115000000000001
0.5115000000000001
0.5115000000000001
0.514
0.5115000000000001
0.512
0.511
0.513
0.5125
0.511
0.512
0.512
0.512
0.51
0.5115000000000001
0.5135
0.5115000000000001
0.5125
0.512
0.5115000000000001
0.5125
0.5125
0.512
0.5115000000000001
0.5125
0.5115000000000001
0.5115000000000001
0.511
0.5105000000000001
0.5125
0.5095000000000001
0.512
0.512
0.514
0.513
0.5085000000000001
0.512
0.51
0.509
0.5075000000000001
0.508
0.508
0.5075000000000001
0.508
0.5085000000000001
0.5085000000000001
0.5115000000000001
0.512
0.5085000000000001
0.508
0.511
0.509
0.51
0.5105000000000001
0.5075000000000001
0.503
0.5035000000000001
0.5055000000000001
0.5065000000000001
0.507
0.5055000000000001
0.509
0.509
0.5075000000000001
0.5095000000000001
0.5075000000000001
0.509
0.509
0.5075000000000001
0.509
0.5095000000000001
0.509
0.5085000000000001
0.5105000000000001
0.5105000000000001
0.511
0.5115000000000001
0.5125
0.512
0.512
0.513
0.513
0.514
0.5135
0.514
0.5145
0.5145
0.514
0.514
0.5145
0.5145
0.514
0.5145
0.5135
0.5135
0.514
0.5135
0.5135
0.512
0.513
0.5135
0.5125
0.5135
0.5135
0.5145
0.514
0.5135
0.5135
0.5135
0.5135
0.5135
0.5135
0.513
0.5135
0.5135
0.513
0.513
0.5115000000000001
0.511
0.5095000000000001
0.5065000000000001
0.5055000000000001
0.505
0.505
0.5055000000000001
0.5055000000000001
0.506
0.507
0.507
0.5075000000000001
0.5075000000000001
0.5095000000000001
0.5085000000000001
0.5075000000000001
0.507
0.5045000000000001
0.5055000000000001
0.5055000000000001
0.5055000000000001
0.5055000000000001
0.5075000000000001
0.5085000000000001
0.5085000000000001
0.5085000000000001
0.509
0.508
0.508
0.5095000000000001
0.51
0.5105000000000001
0.512
0.5125
0.5115000000000001
0.513
0.5125
0.513
0.5125
0.5135
0.513
0.513
0.513
0.5135
0.514
0.5135
0.513
0.5135
0.514
0.5135
0.513
0.514
0.5135
0.5135
0.514
0.513
0.5145
0.514
0.513
0.5135
0.514
0.5135
0.5145
0.514
0.5145
0.5145
0.514
0.5135
0.5135
0.514
0.5145
0.5135
0.5115000000000001
0.5125
0.511
0.5105000000000001
0.5095000000000001
0.5095000000000001
0.5095000000000001
0.5085000000000001
0.506
0.506
0.508
0.5055000000000001
0.506
0.506
0.5065000000000001
0.5055000000000001
0.5065000000000001
0.51
0.51
0.5105000000000001
0.512
0.511
0.512
0.513
0.5125
0.513
0.513
0.5135
0.513
0.513
0.5135
0.5135
0.5145
0.5135
0.5135
0.513
0.5135
0.5145
0.5135
0.5125
0.514
0.5135
0.513
0.513
0.513
0.5135
0.513
0.5125
0.5125
0.5125
0.513
0.5125
0.5125
0.5125
0.5125
0.5125
0.5125
0.5125
0.5125
0.5125
0.512
0.513
0.5135
0.512
0.512
0.513
0.5115000000000001
0.512
0.5105000000000001
0.5105000000000001
0.509
0.5065000000000001
0.5075000000000001
0.5065000000000001
0.5055000000000001
0.5035000000000001
0.5065000000000001
0.5075000000000001
0.5075000000000001
0.509
0.512
0.509
0.5095000000000001
0.5105000000000001
0.509
0.509
0.51
0.5075000000000001
0.5075000000000001
0.5045000000000001
0.5075000000000001
0.5055000000000001
0.5055000000000001
0.5065000000000001
0.5065000000000001
0.507
0.507
0.5065000000000001
0.5055000000000001
0.5055000000000001
0.5045000000000001
0.506
0.505
0.507
0.505
0.5045000000000001
0.504
0.5045000000000001
0.505
0.5075000000000001
0.505
0.5055000000000001
0.5065000000000001
0.5075000000000001
0.5045000000000001
0.504
0.503
0.503
0.503
0.5045000000000001
0.5065000000000001
0.5065000000000001
0.507
0.507
0.5095000000000001
0.5085000000000001
0.5085000000000001
0.5105000000000001
0.5085000000000001
0.5085000000000001
0.508
0.507
0.508
0.505
0.507
0.503
0.5075000000000001
0.5055000000000001
0.507
0.5085000000000001
0.508
0.505
0.506
0.5085000000000001
0.5065000000000001
0.508
0.507
0.508
0.5075000000000001
0.5085000000000001
0.5125
0.5115000000000001
0.5105000000000001
0.51
0.509
0.5095000000000001
0.5085000000000001
0.5085000000000001
0.5095000000000001
0.51
0.5105000000000001
0.512
0.512
0.512
0.5125
0.513
0.513
0.5135
0.513
0.5135
0.5135
0.5125
0.5145
0.513
0.5135
0.5125
0.5135
0.5135
0.5135
0.5125
0.5135
0.513
0.513
0.514
0.513
0.5135
0.5135
0.5135
0.513
0.5135
0.514
0.5145
0.5135
0.514
0.514
0.514
0.5135
0.5135
0.5135
0.5135
0.5135
0.5135
0.5135
0.5145
0.515
0.5135
0.5135
0.5135
0.5135
0.513
0.513
0.5135
0.5135
0.5135
0.513
0.513
0.5135
0.5125
0.513
0.5135
0.5135
0.5135
0.5135
0.513
0.5125
0.5135
0.513
0.5125
0.5125
0.513
0.5135
0.512
0.513
0.514
0.513
0.514
0.5135
0.5135
0.513
0.513
0.5125
0.511
0.5095000000000001
0.509
0.5075000000000001
0.508
0.507
0.5075000000000001
0.509
0.51
0.514
0.5205
0.525
0.5255
0.524
0.5215
0.5175
0.517
0.5135
0.5125
0.5125
0.5115000000000001
0.5105000000000001
0.51
0.5115000000000001
0.51
0.5105000000000001
0.5095000000000001
0.5095000000000001
0.5095000000000001
0.5085000000000001
0.5105000000000001
0.506
0.5085000000000001
0.5085000000000001
0.5085000000000001
0.5095000000000001
0.5085000000000001
0.5095000000000001
0.509
0.5085000000000001
0.5105000000000001
0.511
0.5115000000000001
0.5125
0.5125
0.5135
0.513
0.5135
0.5135
0.5135
0.5145
0.5135
0.5145
0.5145
0.5145
0.5145
0.5145
0.514
0.5145
0.5145
0.5155
0.5145
0.515
0.515
0.514
0.514
0.514
0.514
0.5145
0.5145
0.5145
0.514
0.514
0.515
0.5155
0.5145
0.5145
0.5145
0.515
0.513
0.5125
0.51
0.51
0.5085000000000001
0.5075000000000001
0.508
0.5085000000000001
0.5095000000000001
0.51
0.5105000000000001
0.51
0.5105000000000001
0.5105000000000001
0.5105000000000001
0.5105000000000001
0.51
0.5115000000000001
0.51
0.5115000000000001
0.511
0.5105000000000001
0.51
0.508
0.511
0.509
0.51
0.5105000000000001
0.511
0.51
0.5115000000000001
0.511
0.5095000000000001
0.5105000000000001
0.5095000000000001
0.5095000000000001
0.5105000000000001
0.5105000000000001
0.511
0.5105000000000001
0.5095000000000001
0.5095000000000001
0.509
0.509
0.5105000000000001
0.5095000000000001
0.509
0.5095000000000001
0.51
0.51
0.5075000000000001
0.5095000000000001
0.5095000000000001
0.5105000000000001
0.5095000000000001
0.509
0.5105000000000001
0.5095000000000001
0.5095000000000001
0.5105000000000001
0.512
0.51
0.5105000000000001
0.5085000000000001
0.5095000000000001
0.5085000000000001
0.5075000000000001
0.5095000000000001
0.5075000000000001
0.5055000000000001
0.509
0.5045000000000001
0.5065000000000001
0.506
0.5065000000000001
0.5055000000000001
0.508
0.51
0.5075000000000001
0.505
0.5005000000000001
0.502
0.5025000000000001
1.034
0.81
0.6785
0.6245
0.602
0.594
0.593
0.5795
0.5615
0.5445
0.532
0.5235
0.517
0.5135
0.508
0.5035000000000001
0.5025000000000001
0.5025000000000001
0.4995
0.501
0.5
0.5
0.502
0.5005000000000001
0.5015000000000001
0.503
0.5025000000000001
0.5035000000000001
0.5035000000000001
0.505
0.506
0.5055000000000001
0.5065000000000001
0.5055000000000001
0.506
0.5065000000000001
0.5065000000000001
0.506
0.5055000000000001
0.5055000000000001
0.506
0.5065000000000001
0.506
0.5055000000000001
0.5065000000000001
0.5065000000000001
0.506
0.5065000000000001
0.5065000000000001
0.5055000000000001
0.5065000000000001
0.506
0.5055000000000001
0.506
0.506
0.5065000000000001
0.507
0.5075000000000001
0.505
0.505
0.505
0.5045000000000001
0.5025000000000001
0.501
0.5015000000000001
0.501
0.5025000000000001
0.5035000000000001
0.5035000000000001
0.5045000000000001
0.5055000000000001
0.506
0.5055000000000001
0.507
0.5055000000000001
0.507
0.5065000000000001
0.5075000000000001
0.507
0.5075000000000001
0.507
0.5065000000000001
0.506
0.506
0.507
0.5055000000000001
0.5075000000000001
0.5075000000000001
0.507
0.5065000000000001
0.507
0.507
0.5075000000000001
0.5075000000000001
0.507
0.5075000000000001
0.5075000000000001
0.5065000000000001
0.507
0.5075000000000001
0.5065000000000001
0.506
0.507
0.5065000000000001
0.5065000000000001
0.5065000000000001
0.5075000000000001
0.5065000000000001
0.506
0.506
0.5065000000000001
0.507
0.5075000000000001
0.507
0.507
0.5075000000000001
0.507
0.5075000000000001
0.507
0.5065000000000001
0.5075000000000001
0.5065000000000001
0.506
0.5065000000000001
0.5065000000000001
0.5065000000000001
0.507
0.507
0.5055000000000001
0.5055000000000001
0.507
0.5065000000000001
0.5075000000000001
0.5065000000000001
0.507
0.5065000000000001
0.5075000000000001
0.5075000000000001
0.5075000000000001
0.507
0.507
0.5065000000000001
0.5065000000000001
0.506
0.5045000000000001
0.501
0.5
0.4995
0.4995
0.4995
0.4995
0.4995
0.501
0.5025000000000001
0.5055000000000001
0.5395
0.7795
1.125
1.3875
1.5215
1.473
1.3245
1.1575
1.0150000000000001
0.8965
0.8115
0.7495
0.7145
0.6895
0.6695
0.655
0.6365000000000001
0.615
0.593
0.5715
0.5555
0.544
0.5335
0.526
0.521
0.5155
0.512
0.508
0.5045000000000001
0.5025000000000001
0.501
0.5005000000000001
0.4985
0.498
0.4975
0.4985
0.4955
0.4965
0.4955
0.4955
0.494
0.4915
0.4925
0.492
0.492
0.4915
0.491
0.4935
0.493
0.4935
0.493
0.4935
0.494
0.4935
0.4945
0.4955
0.4935
0.495
0.4945
0.494
0.493
0.4915
0.494
0.4925
0.4925
0.494
0.4935
0.4935
0.4925
0.494
0.494
0.4945
0.494
0.494
0.493
0.4935
0.493
0.4915
0.4905
0.4895
0.4885
0.4895
0.4895
0.491
0.4905
0.4925
0.4915
0.4935
0.4925
0.4925
0.4955
0.493
0.495
0.4955
0.495
0.494
0.4935
0.494
0.4925
0.492
0.492
0.4925
0.492
0.491
0.49
0.4905
0.4925
0.493
0.494
0.494
0.4955
0.491
0.494
0.492
0.492
0.488
0.491
0.4915
0.4905
0.491
0.493
0.4935
0.4945
0.4955
0.4925
0.493
0.4935
0.4925
0.495
0.493
0.493
0.4925
0.494
0.4935
0.4945
0.493
0.493
0.4925
0.495
0.4945
0.4955
0.494
0.491
0.4915
0.4905
0.491
0.493
0.497
0.498
0.501
0.508
0.5195
0.551
0.659
0.9585
1.2675
1.499
1.5515
1.4455
1.28
1.1235
0.9915
0.8875000000000001
0.8035
0.7515000000000001
0.7235
0.722
0.7345
0.7375
0.7155
0.6805
0.6435
0.6105
0.5825
0.561
0.545
0.5325
0.522
0.514
0.5075000000000001
0.503
0.4985
0.4965
0.495
0.492
0.491
0.4905
0.489
0.489
0.489
0.489
0.489
0.488
0.488
0.488
0.4885
0.4865
0.4855
0.486
0.4845
0.4855
0.486
0.4855
0.4855
0.486
0.4875
0.4875
0.4875
0.4865
0.487
0.4865
0.4875
0.4865
0.4875
0.4865
0.4885
0.4875
0.4875
0.4875
0.4875
0.487
0.4865
0.487
0.4875
0.4865
0.4875
0.486
0.4865
0.485
0.4855
0.4845
0.4835
0.4825
0.4825
0.484
0.484
0.4845
0.4865
0.486
0.487
0.487
0.486
0.488
0.4865
0.4875
0.4855
0.4865
0.4845
0.4835
0.485
0.483
0.4845
0.483
0.4815
0.4825
0.482
0.4825
0.483
0.4825
0.4815
0.4805
0.4805
0.481
0.483
0.484
0.4845
0.486
0.4865
0.486
0.487
0.4865
0.4865
0.4875
0.488
0.4875
0.487
0.4885
0.488
0.4885
0.488
0.489
0.4875
0.4885
0.4885
0.489
0.4885
0.489
0.489
0.4895
0.489
0.4885
0.4885
0.4885
0.4895
0.488
0.4875
0.489
0.4885
0.4885
0.4875
0.4875
0.4875
0.4885
0.4875
0.487
0.487
0.4855
0.4845
0.483
0.482
0.482
0.481
0.47800000000000004
0.47750000000000004
0.47700000000000004
0.47800000000000004
0.47950000000000004
0.4825
0.4875
0.4955
0.5685
0.8745
1.2045000000000001
1.4685000000000001
1.5395
1.4365
1.2645
1.0985
0.9635
0.8605
0.787
0.747
0.74
0.7625000000000001
0.7915
0.797
0.7705
0.7255
0.679
0.637
0.6015
0.5760000000000001
0.56
0.5465
0.5325
0.521
0.5095000000000001
0.5015000000000001
0.494
0.4895
0.4865
0.4815
0.481
0.48
0.47800000000000004
0.4805
0.47450000000000003
0.47500000000000003
0.47450000000000003
0.47250000000000003
0.47250000000000003
0.47250000000000003
0.47150000000000003
0.47350000000000003
0.47150000000000003
0.47150000000000003
0.47300000000000003
0.47150000000000003
0.47200000000000003
0.4685
0.47300000000000003
0.46900000000000003
0.47300000000000003
0.47350000000000003
0.47100000000000003
0.47400000000000003
0.468
0.46900000000000003
0.468
0.4685
0.47050000000000003
0.47050000000000003
0.47050000000000003
0.47150000000000003
0.47200000000000003
0.47300000000000003
0.47200000000000003
0.47250000000000003
0.47150000000000003
0.47400000000000003
0.47400000000000003
0.47350000000000003
0.47350000000000003
0.47600000000000003
0.47650000000000003
0.47700000000000004
0.47750000000000004
0.47800000000000004
0.47850000000000004
0.47700000000000004
0.47850000000000004
0.47900000000000004
0.47900000000000004
0.47900000000000004
0.47950000000000004
0.47900000000000004
0.47900000000000004
0.47950000000000004
0.47950000000000004
0.47950000000000004
0.47850000000000004
0.47950000000000004
0.47950000000000004
0.47900000000000004
0.47900000000000004
0.47950000000000004
0.47950000000000004
0.4805
0.4805
0.48
0.47950000000000004
0.4805
0.48
0.47950000000000004
0.4805
0.4805
0.4805
0.4815
0.481
0.481
0.48
0.47900000000000004
0.47950000000000004
0.47950000000000004
0.4805
0.4805
0.47950000000000004
0.48
0.481
0.4805
0.48
0.481
0.4815
0.4815
0.482
0.4815
0.4815
0.481
0.4825
0.482
0.4825
0.4815
0.4825
0.4825
0.481
0.47950000000000004
0.47750000000000004
0.47600000000000003
0.47400000000000003
0.47400000000000003
0.47550000000000003
0.47650000000000003
0.47800000000000004
0.4805
0.4835
0.4915
0.509
0.616
0.9415
1.2525
1.4775
1.5215
1.4055
1.2375
1.077
0.9460000000000001
0.8415
0.7655000000000001
0.7165
0.6885
0.6705
0.6555
0.6355000000000001
0.61
0.585
0.561
0.541
0.525
0.512
0.5045000000000001
0.4975
0.4915
0.4875
0.4825
0.481
0.47900000000000004
0.47700000000000004
0.47550000000000003
0.47550000000000003
0.47350000000000003
0.47250000000000003
0.47200000000000003
0.47250000000000003
0.47150000000000003
0.47150000000000003
0.47250000000000003
0.47150000000000003
0.47100000000000003
0.47050000000000003
0.47100000000000003
0.47050000000000003
0.47100000000000003
0.47150000000000003
0.47150000000000003
0.47100000000000003
0.47150000000000003
0.47100000000000003
0.47150000000000003
0.47100000000000003
0.47050000000000003
0.47250000000000003
0.47100000000000003
0.47100000000000003
0.47150000000000003
0.47150000000000003
0.47250000000000003
0.468
0.47000000000000003
0.46950000000000003
0.47000000000000003
0.46950000000000003
0.47100000000000003
0.47150000000000003
0.47200000000000003
0.47100000000000003
0.47000000000000003
0.47150000000000003
0.47200000000000003
0.47150000000000003
0.47000000000000003
0.46950000000000003
0.46900000000000003
0.46950000000000003
0.47050000000000003
0.47150000000000003
0.47150000000000003
0.47150000000000003
0.47200000000000003
0.47250000000000003
0.47150000000000003
0.47200000000000003
0.47350000000000003
0.47250000000000003
0.47300000000000003
0.47250000000000003
0.47150000000000003
0.47150000000000003
0.47250000000000003
0.47300000000000003
0.47250000000000003
0.47250000000000003
0.47250000000000003
0.47200000000000003
0.47250000000000003
0.47150000000000003
0.47150000000000003
0.47150000000000003
0.47200000000000003
0.47250000000000003
0.47200000000000003
0.47350000000000003
0.47350000000000003
0.47350000000000003
0.47250000000000003
0.47250000000000003
0.47250000000000003
0.47350000000000003
0.47150000000000003
0.47300000000000003
0.47150000000000003
0.47150000000000003
0.47250000000000003
0.47250000000000003
0.47250000000000003
0.47250000000000003
0.47250000000000003
0.47300000000000003
0.47150000000000003
0.47450000000000003
0.47400000000000003
0.47350000000000003
0.47250000000000003
0.47300000000000003
0.47300000000000003
0.47300000000000003
0.47450000000000003
0.47350000000000003
0.47350000000000003
0.47250000000000003
0.47150000000000003
0.47400000000000003
0.47250000000000003
0.47350000000000003
0.47250000000000003
0.47050000000000003
0.47100000000000003
0.47100000000000003
0.47300000000000003
0.47150000000000003
0.47250000000000003
0.47400000000000003
0.47450000000000003
0.47150000000000003
0.47350000000000003
0.47350000000000003
0.47350000000000003
0.47250000000000003
0.47200000000000003
0.47000000000000003
0.46950000000000003
0.47050000000000003
0.46950000000000003
0.46900000000000003
0.4675
0.4675
0.4675
0.47350000000000003
0.492
0.6165
0.9435
1.2825
1.4055
1.2845
1.0995
0.9375
0.8125
0.7245
0.6695
0.6585
0.6365000000000001
0.6025
0.5675
0.542
0.5195
0.507
0.4955
0.48
0.47600000000000003
0.47400000000000003
0.4675
0.462
0.465
0.4585
0.4615
0.4615
0.461
0.4595
0.4625
0.4605
0.4635
0.4635
0.4645
0.4655
0.4665
0.4655
0.465
0.4645
0.463
0.465
0.4635
0.4625
0.4615
0.4625
0.4635
0.464
0.465
0.4645
0.465
0.4625
0.4635
0.4635
0.464
0.4635
0.464
0.466
0.467
0.468
0.46900000000000003
0.47000000000000003
0.47100000000000003
0.46950000000000003
0.47050000000000003
0.47050000000000003
0.47000000000000003
0.47000000000000003
0.47050000000000003
0.47100000000000003
0.47100000000000003
0.47100000000000003
0.47050000000000003
0.47050000000000003
0.47150000000000003
0.47100000000000003
0.47100000000000003
0.47150000000000003
0.47150000000000003
0.47150000000000003
0.47100000000000003
0.47200000000000003
0.47200000000000003
0.47200000000000003
0.47150000000000003
0.47200000000000003
0.47250000000000003
0.47150000000000003
0.47150000000000003
0.47150000000000003
0.47100000000000003
0.47150000000000003
0.47050000000000003
0.47200000000000003
0.47200000000000003
0.47250000000000003
0.47250000000000003
0.47150000000000003
0.47150000000000003
0.47150000000000003
0.47150000000000003
0.47250000000000003
0.47150000000000003
0.47200000000000003
0.47300000000000003
0.47250000000000003
0.47300000000000003
0.47250000000000003
0.47250000000000003
0.47250000000000003
0.47250000000000003
0.47250000000000003
0.47300000000000003
0.47200000000000003
0.47300000000000003
0.47150000000000003
0.47300000000000003
0.47250000000000003
0.47250000000000003
0.47200000000000003
0.47250000000000003
0.47250000000000003
0.47250000000000003
0.47200000000000003
0.47250000000000003
0.47250000000000003
0.47350000000000003
0.47300000000000003
0.47350000000000003
0.47350000000000003
0.47300000000000003
0.47350000000000003
0.47350000000000003
0.47350000000000003
0.47250000000000003
0.47150000000000003
0.47150000000000003
0.47250000000000003
0.47050000000000003
0.4675
0.4665
0.4665
0.466
0.4675
0.47000000000000003
0.47350000000000003
0.56
0.843
1.149
1.2905
1.2705
1.1555
1.0225
0.9025
0.807
0.7255
0.6705
0.628
0.5975
0.5750000000000001
0.5595
0.5475
0.5345
0.5215
0.51
0.501
0.493
0.487
0.4835
0.48
0.47800000000000004
0.47500000000000003
0.47350000000000003
0.47250000000000003
0.47150000000000003
0.47050000000000003
0.47000000000000003
0.46950000000000003
0.47000000000000003
0.46900000000000003
0.4685
0.4685
0.4685
0.4685
0.4685
0.46900000000000003
0.4685
0.46950000000000003
0.4685
0.46950000000000003
0.46950000000000003
0.46950000000000003
0.46950000000000003
0.46950000000000003
0.468
0.46900000000000003
0.468
0.468
0.4675
0.4655
0.4645
0.4635
0.4635
0.4635
0.464
0.4645
0.4665
0.4665
0.4675
0.4685
0.4685
0.4685
0.468
0.4685
0.46900000000000003
0.46900000000000003
0.47100000000000003
0.46950000000000003
0.46950000000000003
0.4685
0.466
0.4655
0.464
0.465
0.464
0.4635
0.464
0.4645
0.4665
0.4685
0.4685
0.46900000000000003
0.468
0.4685
0.46900000000000003
0.4685
0.4675
0.4675
0.4675
0.46900000000000003
0.468
0.4685
0.47000000000000003
0.47100000000000003
0.46950000000000003
0.47000000000000003
0.47050000000000003
0.468
0.468
0.465
0.466
0.466
0.4675
0.467
0.4675
0.46950000000000003
0.4685
0.47050000000000003
0.47150000000000003
0.47200000000000003
0.46900000000000003
0.4675
0.467
0.4675
0.4675
0.4685
0.4675
0.46900000000000003
0.47000000000000003
0.46900000000000003
0.46950000000000003
0.46900000000000003
0.4685
0.46950000000000003
0.47000000000000003
0.47000000000000003
0.47150000000000003
0.4675
0.47050000000000003
0.47100000000000003
0.47100000000000003
0.4675
0.4685
0.4675
0.4675
0.466
0.4685
0.46950000000000003
0.4685
0.4685
0.46950000000000003
0.46950000000000003
0.47050000000000003
0.47150000000000003
0.46950000000000003
0.47100000000000003
0.4685
0.47550000000000003
0.63
1.0165
1.1175
1.064
0.9485
0.8295
0.7465
0.682
0.6385000000000001
0.605
0.5845
0.5740000000000001
0.5680000000000001
0.5525
0.53
0.5135
0.4975
0.49
0.483
0.47600000000000003
0.47250000000000003
0.47050000000000003
0.46900000000000003
0.4685
0.46950000000000003
0.4685
0.46900000000000003
0.468
0.46900000000000003
0.47000000000000003
0.47050000000000003
0.47050000000000003
0.47000000000000003
0.47100000000000003
0.47000000000000003
0.46950000000000003
0.46950000000000003
0.46950000000000003
0.47000000000000003
0.47000000000000003
0.47050000000000003
0.47050000000000003
0.47050000000000003
0.47000000000000003
0.47100000000000003
0.47050000000000003
0.46950000000000003
0.47050000000000003
0.46950000000000003
0.47050000000000003
0.47050000000000003
0.47050000000000003
0.46950000000000003
0.47150000000000003
0.47150000000000003
0.47100000000000003
0.47250000000000003
0.47050000000000003
0.47100000000000003
0.47150000000000003
0.47200000000000003
0.47250000000000003
0.47150000000000003
0.47200000000000003
0.47150000000000003
0.47050000000000003
0.47050000000000003
0.46900000000000003
0.468
0.4665
0.4685
0.4655
0.468
0.46900000000000003
0.4675
0.47050000000000003
0.46900000000000003
0.46900000000000003
0.46950000000000003
0.47050000000000003
0.47100000000000003
0.47150000000000003
0.47050000000000003
0.47250000000000003
0.47200000000000003
0.47200000000000003
0.47250000000000003
0.47150000000000003
0.47350000000000003
0.47250000000000003
0.47200000000000003
0.47250000000000003
0.47300000000000003
0.47300000000000003
0.47300000000000003
0.47300000000000003
0.47350000000000003
0.47350000000000003
0.47350000000000003
0.47150000000000003
0.47100000000000003
0.47100000000000003
0.47250000000000003
0.47050000000000003
0.47150000000000003
0.46950000000000003
0.4675
0.47050000000000003
0.47050000000000003
0.46950000000000003
0.47050000000000003
0.4685
0.4675
0.46950000000000003
0.47050000000000003
0.47100000000000003
0.47100000000000003
0.47250000000000003
0.47300000000000003
0.47300000000000003
0.47300000000000003
0.47350000000000003
0.47500000000000003
0.47500000000000003
0.47450000000000003
0.47450000000000003
0.47350000000000003
0.47450000000000003
0.47500000000000003
0.47500000000000003
0.47400000000000003
0.47400000000000003
0.47450000000000003
0.47500000000000003
0.47450000000000003
0.47450000000000003
0.47500000000000003
0.47500000000000003
0.47500000000000003
0.47500000000000003
0.47500000000000003
0.47550000000000003
0.47500000000000003
0.47400000000000003
0.47300000000000003
0.47200000000000003
0.47000000000000003
0.46900000000000003
0.468
0.4675
0.4685
0.4685
0.46900000000000003
0.47050000000000003
0.47250000000000003
0.47450000000000003
0.5065000000000001
0.7205
1.0735000000000001
1.3655
1.4895
1.4315
1.278
1.115
0.9795
0.873
0.7945
0.7515000000000001
0.7425
0.7435
0.7365
0.719
0.6925
0.6585
0.6235
0.5925
0.5650000000000001
0.544
0.531
0.5215
0.511
0.502
0.494
0.4875
0.4815
0.47750000000000004
0.47500000000000003
0.47300000000000003
0.47200000000000003
0.47000000000000003
0.46900000000000003
0.4675
0.4665
0.466
0.4655
0.4655
0.4655
0.4655
0.464
0.4645
0.467
0.4655
0.4655
0.4645
0.465
0.4645
0.4645
0.466
0.466
0.464
0.4655
0.4655
0.4655
0.4655
0.4645
0.4655
0.4665
0.4655
0.4655
0.4655
0.467
0.466
0.466
0.4645
0.466
0.4655
0.466
0.4655
0.465
0.464
0.4625
0.464
0.4625
0.462
0.4635
0.4635
0.4635
0.464
0.465
0.4645
0.465
0.4665
0.4645
0.467
0.4645
0.4635
0.4645
0.465
0.466
0.465
0.4655
0.4655
0.46950000000000003
0.4655
0.4675
0.466
0.466
0.465
0.466
0.4635
0.4635
0.4675
0.4655
0.464
0.4645
0.466
0.4665
0.46900000000000003
0.468
0.4665
0.466
0.4675
0.464
0.4655
0.4635
0.465
0.4655
0.4645
0.463
0.4635
0.464
0.4645
0.4655
0.468
0.467
0.4665
0.4675
0.468
0.46950000000000003
0.466
0.467
0.4665
0.4665
0.4675
0.4675
0.4675
0.468
0.4665
0.4665
0.4665
0.467
0.468
0.4685
0.46950000000000003
0.47350000000000003
0.4805
0.5015000000000001
0.616
1.0185
1.318
1.551
1.713
1.6955
1.5315
1.3285
1.1455
0.9995
0.8895000000000001
0.8150000000000001
0.8045
0.8615
0.9415
0.9705
0.9335
0.859
0.7785
0.7105
0.6565
0.6135
0.5795
0.554
0.534
0.518
0.5045000000000001
0.4925
0.486
0.47900000000000004
0.47350000000000003
0.46950000000000003
0.4665
0.4645
0.462
0.4615
0.461
0.4595
0.4595
0.4585
0.458
0.458
0.4575
0.457
0.4565
0.458
0.4575
0.4575
0.457
0.4565
0.4575
0.4575
0.4575
0.4565
0.4565
0.4565
0.4575
0.457
0.457
0.4575
0.457
0.458
0.4575
0.4585
0.458
0.4575
0.4575
0.4575
0.4575
0.458
0.4585
0.4585
0.458
0.458
0.4565
0.456
0.456
0.4555
0.4565
0.456
0.4575
0.458
0.4585
0.4585
0.459
0.4585
0.46
0.4605
0.4595
0.4605
0.462
0.459
0.461
0.459
0.4575
0.4575
0.4575
0.458
0.457
0.4565
0.457
0.458
0.458
0.4585
0.459
0.4595
0.4605
0.46
0.4595
0.4595
0.4605
0.4605
0.4605
0.4595
0.4605
0.4605
0.461
0.461
0.461
0.4605
0.4615
0.4615
0.462
0.462
0.462
0.4615
0.4615
0.4615
0.4615
0.462
0.462
0.4625
0.462
0.4615
0.4625
0.462
0.4615
0.4615
0.4605
0.4615
0.4615
0.462
0.462
0.4615
0.4625
0.4635
0.4635
0.4625
0.461
0.4605
0.4625
0.461
0.4615
0.4615
0.461
0.462
0.4605
0.461
0.4595
0.4575
0.4555
0.4545
0.454
0.453
0.454
0.4545
0.457
0.4665
0.5045000000000001
0.6165
0.8855000000000001
1.2255
1.4775
1.6705
1.8215000000000001
1.9475
1.9415
1.7595
1.542
1.3675
1.315
1.3745
1.4955
1.6035
1.6625
1.627
1.4915
1.3115
1.135
0.985
0.866
0.778
0.716
0.664
0.617
0.5795
0.547
0.52
0.4995
0.4805
0.4675
0.4585
0.4495
0.444
0.44
0.4365
0.4365
0.43
0.4285
0.4315
0.4275
0.4275
0.4275
0.427
0.427
0.4285
0.4275
0.4265
0.428
0.428
0.4275
0.4275
0.4275
0.427
0.428
0.428
0.4275
0.429
0.426
0.4275
0.426
0.4265
0.4255
0.426
0.425
0.427
0.428
0.4285
0.4275
0.429
0.4285
0.4285
0.4265
0.427
0.4255
0.426
0.426
0.4265
0.4295
0.4285
0.426
0.4275
0.428
0.4285
0.429
0.43
0.429
0.429
0.432
0.4315
0.43
0.4305
0.4325
0.4315
0.433
0.434
0.4345
0.4335
0.4335
0.434
0.4345
0.435
0.436
0.4365
0.4365
0.437
0.4375
0.4375
0.4375
0.4385
0.438
0.4375
0.4385
0.4385
0.439
0.438
0.4385
0.439
0.439
0.4385
0.438
0.4385
0.438
0.438
0.438
0.4385
0.4385
0.439
0.439
0.4395
0.4395
0.4395
0.4395
0.44
0.4395
0.4395
0.4415
0.4405
0.4395
0.4375
0.4345
0.4335
0.4345
0.438
0.441
0.444
0.449
0.4645
0.5195
0.6615
0.962
1.2690000000000001
1.5215
1.7075
1.8535000000000001
1.9735
2.0475
2.0445
1.8635
1.6355
1.4615
1.417
1.5295
1.7235
1.8745
1.9915
2.0475
2.0475
1.877
1.6185
1.3705
1.183
1.0855000000000001
1.0155
0.9405
0.8555
0.7705
0.6955
0.634
0.5845
0.5445
0.513
0.4875
0.4675
0.4515
0.4395
0.429
0.422
0.41550000000000004
0.41100000000000003
0.40700000000000003
0.4045
0.4015
0.399
0.398
0.3965
0.396
0.3955
0.3945
0.3955
0.396
0.3955
0.395
0.395
0.3945
0.395
0.3955
0.3935
0.3945
0.3945
0.3945
0.3945
0.394
0.3955
0.3955
0.3965
0.396
0.3955
0.3955
0.396
0.3965
0.3965
0.3965
0.397
0.396
0.3955
0.3945
0.3935
0.3915
0.391
0.392
0.392
0.3935
0.3945
0.3965
0.3965
0.3975
0.397
0.3975
0.3985
0.398
0.3985
0.398
0.399
0.3995
0.3995
0.3995
0.3995
0.398
0.3995
0.3995
0.3985
0.3995
0.3995
0.4
0.3995
0.4
0.4005
0.3995
0.3995
0.3995
0.398
0.3975
0.4005
0.398
0.3985
0.3995
0.3995
0.3995
0.3995
0.4015
0.4015
0.401
0.402
0.4015
0.402
0.4025
0.4025
0.402
0.403
0.402
0.4015
0.4025
0.4035
0.402
0.4015
0.403
0.403
0.403
0.4045
0.403
0.4035
0.4045
0.404
0.4035
0.403
0.4035
0.4035
0.4045
0.4025
0.405
0.4045
0.405
0.4055
0.4055
0.4055
0.4015
0.404
0.4015
0.4005
0.4205
0.444
0.4975
0.669
1.0675000000000001
1.3915
1.6
1.7665
1.8955
2.017
2.0475
2.0475
2.0475
2.0475
2.0475
2.0475
2.0475
1.367
1.121
0.9695
0.837
0.7275
0.6415
0.5745
0.51
0.467
0.4285
0.4055
0.3905
0.3775
0.3685
0.3615
0.3565
0.353
0.35000000000000003
0.34800000000000003
0.34500000000000003
0.34550000000000003
0.34550000000000003
0.34400000000000003
0.3435
0.34400000000000003
0.3435
0.3435
0.3435
0.3435
0.3435
0.34400000000000003
0.34450000000000003
0.34750000000000003
0.34450000000000003
0.34550000000000003
0.34500000000000003
0.34550000000000003
0.34550000000000003
0.34550000000000003
0.34600000000000003
0.34500000000000003
0.34550000000000003
0.34550000000000003
0.34600000000000003
0.34650000000000003
0.34700000000000003
0.34650000000000003
0.34550000000000003
0.34550000000000003
0.34500000000000003
0.34450000000000003
0.34550000000000003
0.34550000000000003
0.34700000000000003
0.34700000000000003
0.34800000000000003
0.34900000000000003
0.34950000000000003
0.35000000000000003
0.34950000000000003
0.35000000000000003
0.34950000000000003
0.35050000000000003
0.35100000000000003
0.35100000000000003
0.35150000000000003
0.35150000000000003
0.352
0.353
0.3525
0.3525
0.3535
0.354
0.3525
0.3535
0.3535
0.3535
0.3535
0.3535
0.3545
0.355
0.3545
0.3545
0.3555
0.3575
0.356
0.358
0.356
0.353
0.3545
0.3545
0.3565
0.355
0.3555
0.3565
0.356
0.355
0.3555
0.3555
0.357
0.3555
0.356
0.3555
0.3555
0.3565
0.3565
0.3565
0.3565
0.3575
0.3575
0.3585
0.359
0.3595
0.3615
0.36
0.3605
0.361
0.362
0.3615
0.3615
0.3625
0.3625
0.3635
0.3635
0.3635
0.3635
0.364
0.3665
0.3635
0.3615
0.36
0.3585
0.3575
0.3575
0.3585
0.3615
0.365
0.373
0.422
0.5815
0.882
1.203
1.4515
1.6505
1.8075
1.9305
2.029
2.0475
2.0475
2.0475
2.0475
2.0235
2.041
2.0475
2.0475
2.0475
2.0475
2.0475
2.0475
2.0475
1.9125
1.6135
1.3615
1.2155
1.1215
1.031
0.9285
0.8215
0.723
0.6395000000000001
0.5655
0.5105000000000001
0.465
0.43
0.403
0.3815
0.364
0.35150000000000003
0.3405
0.3325
0.326
0.3195
0.3165
0.3145
0.3115
0.309
0.308
0.307
0.3055
0.305
0.304
0.3045
0.305
0.3045
0.3035
0.3035
0.3045
0.3045
0.304
0.3035
0.3045
0.303
0.3055
0.305
0.3035
0.3045
0.3055
0.305
0.3055
0.306
0.305
0.306
0.305
0.305
0.3065
0.305
0.3055
0.307
0.3065
0.3045
0.305
0.3045
0.305
0.3035
0.305
0.3045
0.3045
0.307
0.307
0.3075
0.31
0.3105
0.31
0.311
0.311
0.3095
0.3105
0.311
0.3125
0.313
0.3125
0.3135
0.313
0.3105
0.3135
0.3125
0.316
0.3155
0.3145
0.317
0.312
0.314
0.3165
0.3135
0.313
0.318
0.3175
0.3175
0.316
0.317
0.3115
0.317
0.313
0.313
0.314
0.3165
0.316
0.3175
0.32
0.321
0.3195
0.317
0.3185
0.3195
0.3215
0.3215
0.3225
0.321
0.3205
0.3215
0.3235
0.323
0.3225
0.324
0.3315
0.34500000000000003
0.355
0.374
0.4545
0.638
0.9795
1.2815
1.5155
1.7015
1.8515000000000001
1.979
2.0475
2.0475
2.0475
2.0475
2.0315
2.0475
2.0475
2.0475
2.0475
2.0475
2.0475
2.0475
2.0475
1.911
1.5995000000000001
1.3175000000000001
1.1525
1.063
0.972
0.867
0.7615000000000001
0.6625
0.582
0.5165
0.4645
0.4245
0.392
0.365
0.34600000000000003
0.3285
0.316
0.306
0.2985
0.2925
0.2885
0.28500000000000003
0.28150000000000003
0.2795
0.2775
0.2755
0.2745
0.2745
0.274
0.2735
0.2735
0.2725
0.273
0.273
0.2735
0.273
0.2745
0.2735
0.2745
0.2745
0.2745
0.2735
0.275
0.2755
0.2755
0.2755
0.2775
0.2765
0.2765
0.2765
0.2765
0.2755
0.2775
0.2775
0.2765
0.2775
0.276
0.275
0.276
0.276
0.2785
0.278
0.279
0.28
0.2805
0.281
0.281
0.28200000000000003
0.28250000000000003
0.28300000000000003
0.28200000000000003
0.28300000000000003
0.28350000000000003
0.28350000000000003
0.28300000000000003
0.28300000000000003
0.28350000000000003
0.28400000000000003
0.28550000000000003
0.28450000000000003
0.28500000000000003
0.28550000000000003
0.28550000000000003
0.28550000000000003
0.28550000000000003
0.28700000000000003
0.28600000000000003
0.28650000000000003
0.28650000000000003
0.28700000000000003
0.28750000000000003
0.28750000000000003
0.2885
0.2885
0.289
0.289
0.2895
0.2895
0.2905
0.2915
0.2905
0.291
0.2925
0.2935
0.2935
0.293
0.291
0.294
0.295
0.2945
0.293
0.293
0.294
0.294
0.2935
0.295
0.2965
0.2965
0.2965
0.2965
0.2965
0.297
0.297
0.2985
0.2985
0.299
0.2985
0.299
0.3
0.3
0.2995
0.2995
0.302
0.3005
0.301
0.301
0.3005
0.299
0.299
0.297
0.296
0.294
0.2945
0.2965
0.3015
0.3215
0.4045
0.5855
0.9085
1.221
1.4675
1.661
1.815
1.9355
2.0335
2.0475
2.0475
1.9835
1.8655
1.8635
1.9625000000000001
2.0475
2.0475
2.0475
2.0475
2.0475
2.0475
1.8835
1.5695000000000001
1.2815
1.1625
1.1385
1.0955
1.0075
0.8915000000000001
0.767
0.6635
0.577
0.507
0.4515
0.40850000000000003
0.3715
0.34600000000000003
0.3225
0.304
0.2925
0.28250000000000003
0.2735
0.267
0.26
0.2575
0.2535
0.2505
0.247
0.2455
0.2425
0.244
0.245
0.2415
0.243
0.2415
0.242
0.2425
0.241
0.2405
0.242
0.2435
0.245
0.2475
0.2485
0.2485
0.25
0.25
0.2505
0.2515
0.2525
0.2515
0.252
0.253
0.2535
0.2535
0.2535
0.2535
0.252
0.2525
0.251
0.2525
0.2515
0.2535
0.254
0.255
0.256
0.256
0.2575
0.2585
0.258
0.2585
0.2595
0.259
0.2605
0.259
0.261
0.262
0.2595
0.262
0.2625
0.2615
0.2635
0.2635
0.263
0.264
0.2635
0.266
0.2635
0.265
0.2655
0.265
0.267
0.265
0.2665
0.2655
0.2665
0.267
0.2675
0.2695
0.2665
0.2705
0.2695
0.2655
0.2665
0.266
0.2675
0.269
0.2685
0.2685
0.266
0.27
0.27
0.271
0.272
0.268
0.2715
0.269
0.27
0.2685
0.2715
0.275
0.275
0.2755
0.271
0.2745
0.2735
0.276
0.28200000000000003
0.28700000000000003
0.2915
0.3195
0.402
0.635
1.026
1.3275000000000001
1.593
1.7755
1.9075
2.0105
2.0475
2.0475
2.0475
2.0475
2.0475
2.0475
2.0475
2.0475
2.0475
2.0475
2.0475
2.0475
2.0475
1.7415
1.4415
1.2515
1.1575
1.0715000000000001
0.9555
0.834
0.7215
0.6235
0.541
0.47550000000000003
0.421
0.3815
0.34800000000000003
0.3225
0.3015
0.28600000000000003
0.2735
0.263
0.2545
0.251
0.245
0.243
0.23850000000000002
0.23750000000000002
0.23550000000000001
0.23450000000000001
0.233
0.2305
0.2305
0.2305
0.23
0.2305
0.231
0.2315
0.2305
0.232
0.231
0.2315
0.232
0.233
0.2325
0.2325
0.233
0.233
0.234
0.234
0.2325
0.23450000000000001
0.23600000000000002
0.23550000000000001
0.23550000000000001
0.234
0.234
0.234
0.2335
0.2325
0.232
0.233
0.231
0.23
0.2305
0.231
0.2325
0.23450000000000001
0.23550000000000001
0.23650000000000002
0.23750000000000002
0.23850000000000002
0.23850000000000002
0.23850000000000002
0.23950000000000002
0.24
0.23950000000000002
0.2405
0.2405
0.241
0.2425
0.2425
0.2425
0.2435
0.2435
0.245
0.245
0.2445
0.245
0.2475
0.2465
0.2465
0.2465
0.2475
0.247
0.2475
0.2485
0.2485
0.2485
0.2495
0.25
0.2505
0.252
0.2515
0.2515
0.251
0.252
0.252
0.2525
0.253
0.253
0.2535
0.2545
0.255
0.255
0.2545
0.256
0.2555
0.2555
0.2555
0.256
0.2565
0.256
0.257
0.257
0.2575
0.258
0.258
0.2585
0.257
0.256
0.256
0.2575
0.2575
0.2585
0.2585
0.2595
0.2595
0.2615
0.2605
0.262
0.263
0.2605
0.258
0.2575
0.258
0.2615
0.2685
0.278
0.28600000000000003
0.2965
0.328
0.423
0.6625
1.0295
1.322
1.5495
1.7245000000000001
1.8735
1.9835
2.0475
2.0475
2.0075
1.8865
1.8715
1.9895
2.0475
2.0475
2.0475
2.0475
2.0475
2.0475
2.0475
1.7795
1.4695
1.2505
1.1315
1.0305
0.9175
0.7975
0.6835
0.586
0.504
0.438
0.3885
0.34900000000000003
0.3165
0.2925
0.274
0.2575
0.2455
0.23950000000000002
0.2325
0.226
0.2225
0.2195
0.217
0.216
0.214
0.2125
0.2135
0.2125
0.212
0.2125
0.211
0.213
0.2125
0.213
0.2125
0.212
0.2125
0.2135
0.213
0.2145
0.213
0.215
0.2155
0.216
0.2155
0.2175
0.219
0.217
0.2165
0.2185
0.216
0.216
0.216
0.2185
0.217
0.2155
0.2155
0.218
0.218
0.2195
0.217
0.2205
0.2205
0.2225
0.2225
0.2225
0.224
0.2255
0.224
0.2245
0.2255
0.2255
0.226
0.228
0.2265
0.228
0.231
0.2315
0.2315
0.2315
0.23
0.2305
0.2315
0.233
0.2335
0.2335
0.23450000000000001
0.23550000000000001
0.23700000000000002
0.23750000000000002
0.23750000000000002
0.23850000000000002
0.23850000000000002
0.23950000000000002
0.23950000000000002
0.2415
0.2405
0.242
0.241
0.24
0.2415
0.2405
0.23950000000000002
0.2405
0.241
0.243
0.2445
0.2415
0.2405
0.242
0.243
0.243
0.2435
0.2425
0.242
0.2405
0.2425
0.2415
0.243
0.2435
0.244
0.2455
0.248
0.248
0.2485
0.2525
0.28650000000000003
0.426
0.6920000000000001
1.068
1.351
1.571
1.7435
1.8815
1.9915
2.0475
2.0475
2.0475
1.9555
1.8195000000000001
1.7875
1.8965
2.0145
2.0475
2.0475
2.0475
2.0475
1.9745000000000001
1.6515
1.3705
1.1515
1.0505
0.985
0.9085
0.8115
0.708
0.6115
0.527
0.4575
0.4025
0.358
0.325
0.2985
0.2795
0.262
0.2485
0.23850000000000002
0.23
0.2235
0.219
0.2155
0.2125
0.21
0.2085
0.20650000000000002
0.20550000000000002
0.20550000000000002
0.20500000000000002
0.20500000000000002
0.20450000000000002
0.20450000000000002
0.203
0.20350000000000001
0.20500000000000002
0.20550000000000002
0.20550000000000002
0.20550000000000002
0.20500000000000002
0.20550000000000002
0.20600000000000002
0.20600000000000002
0.20650000000000002
0.20700000000000002
0.2085
0.20700000000000002
0.20800000000000002
0.20750000000000002
0.2085
0.2095
0.209
0.21
0.21
0.2105
0.2095
0.2085
0.2085
0.2095
0.21
0.2105
0.2125
0.214
0.214
0.2155
0.215
0.215
0.2135
0.2135
0.213
0.2145
0.2145
0.2155
0.217
0.219
0.2185
0.2195
0.22
0.2205
0.222
0.2215
0.222
0.2225
0.222
0.2225
0.223
0.2235
0.2235
0.2245
0.2245
0.2255
0.2255
0.226
0.2265
0.2265
0.2275
0.227
0.2275
0.229
0.2285
0.228
0.23
0.2295
0.2305
0.23
0.2295
0.229
0.2285
0.228
0.228
0.2295
0.2295
0.2305
0.231
0.2315
0.232
0.233
0.233
0.234
0.2335
0.23500000000000001
0.23500000000000001
0.234
0.23550000000000001
0.23450000000000001
0.23500000000000001
0.2335
0.2325
0.232
0.2325
0.234
0.23550000000000001
0.23550000000000001
0.23650000000000002
0.23600000000000002
0.242
0.23650000000000002
0.23850000000000002
0.23650000000000002
0.23450000000000001
0.23600000000000002
0.23800000000000002
0.241
0.247
0.253
0.275
0.3645
0.5635
0.878
1.202
1.457
1.6525
1.817
1.9415
2.0395
2.0475
2.0475
2.0475
2.0475
2.0355
2.0475
2.0475
2.0475
2.0475
2.0475
2.0475
2.0475
1.974
1.5815000000000001
1.2965
1.238
1.1520000000000001
0.989
0.802
0.652
0.5335
0.4455
0.3695
0.3205
0.2885
0.2625
0.2435
0.231
0.2165
0.20700000000000002
0.197
0.191
0.187
0.1855
0.1845
0.1785
0.1775
0.1835
0.182
0.181
0.1825
0.1845
0.1835
0.1855
0.1845
0.1865
0.184
0.1855
0.1855
0.187
0.187
0.189
0.187
0.188
0.1895
0.1905
0.191
0.191
0.1905
0.1925
0.1915
0.1925
0.1935
0.1945
0.1955
0.196
0.1985
0.199
0.1995
0.1995
0.2005
0.2015
0.201
0.203
0.2025
0.203
0.20350000000000001
0.20500000000000002
0.20400000000000001
0.20500000000000002
0.20450000000000002
0.20400000000000001
0.20450000000000002
0.20550000000000002
0.20550000000000002
0.20600000000000002
0.20600000000000002
0.20700000000000002
0.20800000000000002
0.20700000000000002
0.2085
0.20800000000000002
0.20800000000000002
0.2085
0.2085
0.20800000000000002
0.209
0.2095
0.21
0.21
0.211
0.211
0.212
0.213
0.2135
0.215
0.215
0.2155
0.2155
0.2155
0.217
0.2165
0.217
0.2175
0.2175
0.2185
0.2185
0.219
0.2195
0.2195
0.2195
0.22
0.221
0.221
0.2205
0.2205
0.2215
0.223
0.223
0.2225
0.223
0.2235
0.224
0.224
0.224
0.2225
0.223
0.2205
0.221
0.2225
0.2285
0.234
0.2695
0.41450000000000004
0.7625000000000001
1.143
1.3945
1.6135
1.7870000000000001
1.9215
2.0235
2.0475
2.0475
2.0475
2.0475
2.0475
2.0475
2.0475
2.0475
2.0475
2.0475
2.0475
2.0475
2.0475
1.8425
1.5215
1.3065
1.2285
1.165
1.0615
0.9265
0.79
0.6685
0.5645
0.4805
0.41350000000000003
0.357
0.3165
0.28500000000000003
0.258
0.23800000000000002
0.222
0.2095
0.2005
0.1925
0.186
0.1815
0.179
0.177
0.17550000000000002
0.17400000000000002
0.1715
0.171
0.1715
0.1705
0.17
0.1695
0.1695
0.17
0.1705
0.17
0.1705
0.171
0.17
0.1715
0.17250000000000001
0.171
0.171
0.17
0.1695
0.17
0.1695
0.17
0.1695
0.1695
0.17250000000000001
0.17350000000000002
0.17450000000000002
0.17400000000000002
0.17400000000000002
0.17450000000000002
0.17450000000000002
0.17500000000000002
0.176
0.178
0.1775
0.178
0.178
0.179
0.1805
0.1805
0.181
0.182
0.1825
0.1835
0.1835
0.1845
0.1845
0.185
0.1845
0.185
0.185
0.185
0.186
0.186
0.1865
0.187
0.1865
0.188
0.189
0.188
0.1905
0.1895
0.19
0.1905
0.189
0.192
0.191
0.191
0.1925
0.1925
0.193
0.1935
0.194
0.195
0.1965
0.1945
0.195
0.1965
0.197
0.1975
0.198
0.1995
0.2
0.2
0.197
0.199
0.1955
0.1975
0.1955
0.1965
0.1985
0.2015
0.2015
0.2
0.2005
0.202
0.20350000000000001
0.2015
0.20550000000000002
0.20500000000000002
0.202
0.20550000000000002
0.20350000000000001
0.20550000000000002
0.20750000000000002
0.20750000000000002
0.209
0.20550000000000002
0.20600000000000002
0.212
0.215
0.7155
1.917
2.0475
2.0475
2.0475
2.0475
2.0475
2.0475
2.0475
2.0475
2.0475
2.0475
1.999
1.5915000000000001
1.2585
1.1275
1.025
0.902
0.76
0.634
0.532
0.4465
0.3815
0.3315
0.2915
0.2615
0.23750000000000002
0.218
0.20400000000000001
0.1915
0.1815
0.17500000000000002
0.1695
0.1645
0.1615
0.1595
0.158
0.156
0.156
0.1555
0.155
0.1545
0.1545
0.1545
0.155
0.1555
0.1555
0.156
0.1555
0.157
0.1575
0.1575
0.1585
0.158
0.158
0.158
0.1585
0.159
0.16
0.16
0.1605
0.161
0.161
0.162
0.162
0.1625
0.162
0.1635
0.164
0.164
0.1645
0.1645
0.166
0.166
0.1665
0.1665
0.1675
0.1675
0.168
0.169
0.169
0.1705
0.169
0.1685
0.169
0.17
0.171
0.17200000000000001
0.17250000000000001
0.17300000000000001
0.17400000000000002
0.17350000000000002
0.17300000000000001
0.17300000000000001
0.17400000000000002
0.17450000000000002
0.17450000000000002
0.17450000000000002
0.177
0.17550000000000002
0.1765
0.1765
0.1775
0.178
0.178
0.179
0.18
0.1805
0.18
0.1815
0.182
0.1825
0.182
0.1835
0.1835
0.1845
0.1845
0.1855
0.1855
0.186
0.1865
0.1865
0.188
0.188
0.1875
0.188
0.1865
0.1855
0.185
0.1865
0.188
0.1895
0.189
0.1895
0.191
0.1915
0.192
0.193
0.193
0.193
0.1935
0.1945
0.1945
0.1945
0.1945
0.195
0.196
0.1965
0.1965
0.197
0.1965
0.196
0.196
0.1955
0.1975
0.201
0.20450000000000002
0.2105
0.2265
0.265
0.34
0.4965
0.8325
1.169
1.426
1.6265
1.7885
1.9155
2.0155
2.0475
2.0475
2.0475
2.0475
2.0475
2.0475
2.0475
2.0475
2.0475
2.0475
2.0475
2.0475
1.9105
1.571
1.3235000000000001
1.2335
1.1855
1.0905
0.9540000000000001
0.801
0.6705
0.5615
0.47200000000000003
0.3975
0.341
0.2975
0.2635
0.23650000000000002
0.2155
0.1985
0.186
0.17550000000000002
0.168
0.162
0.1555
0.153
0.15
0.147
0.146
0.145
0.14300000000000002
0.14350000000000002
0.14350000000000002
0.14250000000000002
0.14200000000000002
0.14300000000000002
0.14200000000000002
0.14200000000000002
0.1405
0.14150000000000001
0.14100000000000001
0.14350000000000002
0.14350000000000002
0.145
0.145
0.14350000000000002
0.146
0.146
0.146
0.147
0.146
0.1465
0.149
0.151
0.1495
0.1485
0.151
0.1495
0.1515
0.1515
0.151
0.152
0.154
0.152
0.1545
0.1525
0.155
0.156
0.1545
0.156
0.1575
0.155
0.155
0.158
0.156
0.159
0.1585
0.1595
0.159
0.162
0.1595
0.16
0.1595
0.161
0.161
0.162
0.1625
0.1675
0.1675
0.168
0.1675
0.1695
0.1675
0.1695
0.1695
0.17
0.17250000000000001
0.17200000000000001
0.17350000000000002
0.17
0.1715
0.17300000000000001
0.17300000000000001
0.17300000000000001
0.17500000000000002
0.1775
0.178
0.1795
0.18
0.181
0.182
0.182
0.1845
0.1855
0.1855
0.186
0.1885
0.187
0.187
0.188
0.185
0.185
0.1835
0.183
0.184
0.1835
0.185
0.185
0.188
0.1955
0.2085
0.244
0.363
0.6425
1.0205
1.3115
1.5395
1.7215
1.8645
1.9765000000000001
2.0475
2.0475
2.0475
2.0475
1.9715
1.9615
2.0475
2.0475
2.0475
2.0475
2.0475
2.0475
2.0475
1.9115
1.5795000000000001
1.2875
1.1585
1.0785
0.9805
0.8595
0.733
0.6175
0.5195
0.438
0.374
0.3235
0.28300000000000003
0.2495
0.2255
0.20550000000000002
0.1895
0.178
0.169
0.1625
0.1555
0.1515
0.149
0.148
0.14350000000000002
0.14300000000000002
0.14150000000000001
0.14100000000000001
0.1405
0.139
0.1395
0.1395
0.14
0.14
0.139
0.1395
0.1405
0.14100000000000001
0.14150000000000001
0.14150000000000001
0.14250000000000002
0.14350000000000002
0.14300000000000002
0.14250000000000002
0.14250000000000002
0.14250000000000002
0.14350000000000002
0.14400000000000002
0.1445
0.146
0.1475
0.147
0.1465
0.147
0.1475
0.1485
0.149
0.1495
0.15
0.1515
0.1515
0.152
0.152
0.1535
0.1535
0.1545
0.155
0.1545
0.155
0.156
0.1565
0.1565
0.1565
0.158
0.1585
0.1585
0.1605
0.16
0.1595
0.1605
0.161
0.1615
0.1625
0.162
0.1625
0.1625
0.1645
0.1645
0.1645
0.1645
0.1635
0.1645
0.1645
0.166
0.1645
0.166
0.166
0.167
0.1675
0.169
0.1695
0.1695
0.17
0.1705
0.1705
0.1715
0.17300000000000001
0.17350000000000002
0.17300000000000001
0.17300000000000001
0.17200000000000001
0.17400000000000002
0.17350000000000002
0.17350000000000002
0.17300000000000001
0.17400000000000002
0.17450000000000002
0.17450000000000002
0.17500000000000002
0.1765
0.17450000000000002
0.17500000000000002
0.17500000000000002
0.1765
0.176
0.179
0.1775
0.178
0.1785
0.1785
0.183
0.1825
0.1805
0.1805
0.1825
0.181
0.184
0.182
0.1815
0.1795
0.1805
0.1805
0.185
0.189
0.201
0.2095
0.2295
0.2915
0.449
0.759
1.1125
1.3885
1.6065
1.7755
1.9105
2.0115
2.0475
2.0475
1.9315
1.8535000000000001
1.9575
2.0475
2.0475
2.0475
2.0475
2.0475
2.0475
2.0475
1.719
1.3785
1.2395
1.1635
1.0090000000000001
0.799
0.6215
0.4955
0.3975
0.3075
0.2655
0.23450000000000001
0.20400000000000001
0.187
0.1705
0.1555
0.1495
0.1445
0.14250000000000002
0.139
0.136
0.1315
0.1315
0.132
0.131
0.1295
0.131
0.131
0.1295
0.1315
0.132
0.135
0.136
0.136
0.1385
0.1385
0.1405
0.14200000000000002
0.139
0.1385
0.1395
0.138
0.1405
0.14300000000000002
0.14100000000000001
0.1395
0.1395
0.14300000000000002
0.1405
0.14150000000000001
0.14250000000000002
0.14350000000000002
0.146
0.146
0.147
0.1495
0.1495
0.1505
0.1515
0.152
0.152
0.1545
0.1525
0.154
0.154
0.154
0.1545
0.1555
0.156
0.157
0.1575
0.1575
0.1575
0.1585
0.159
0.159
0.1595
0.159
0.16
0.1595
0.16
0.16
0.159
0.1585
0.158
0.1585
0.159
0.1595
0.158
0.1595
0.161
0.161
0.163
0.163
0.1655
0.1665
0.1675
0.1675
0.168
0.1685
0.168
0.1675
0.168
0.1685
0.1655
0.167
0.1665
0.166
0.1685
0.1685
0.1685
0.169
0.169
0.169
0.17
0.1705
0.1715
0.17200000000000001
0.17200000000000001
0.17350000000000002
0.1765
0.1765
0.178
0.1775
0.1765
0.17550000000000002
0.17500000000000002
0.17400000000000002
0.17400000000000002
0.17550000000000002
0.1815
0.221
0.3325
0.5335
0.8685
1.1925000000000001
1.4555
1.6505
1.8065
1.929
2.0285
2.0475
2.0475
2.0475
2.0435
2.0365
2.0475
2.0475
2.0475
2.0475
2.0475
2.0475
2.0475
2.0475
1.8415000000000001
1.5035
1.3015
1.2155
1.1385
1.0210000000000001
0.8745
0.7335
0.611
0.5105000000000001
0.425
0.361
0.3105
0.2715
0.23850000000000002
0.213
0.194
0.178
0.1685
0.1545
0.1485
0.14300000000000002
0.1375
0.133
0.131
0.1285
0.1275
0.1245
0.124
0.123
0.1245
0.1245
0.126
0.1265
0.1275
0.128
0.1285
0.129
0.128
0.128
0.128
0.1285
0.129
0.129
0.129
0.1305
0.1315
0.1335
0.1345
0.1345
0.134
0.1355
0.136
0.134
0.1375
0.137
0.1365
0.14
0.14100000000000001
0.14150000000000001
0.14
0.1405
0.1405
0.14150000000000001
0.1405
0.14200000000000002
0.14150000000000001
0.14150000000000001
0.14250000000000002
0.14350000000000002
0.1445
0.1455
0.1455
0.1465
0.1495
0.1495
0.15
0.1495
0.15
0.1515
0.1535
0.1525
0.1535
0.1535
0.154
0.1545
0.155
0.154
0.1555
0.1565
0.157
0.157
0.1565
0.1575
0.1565
0.1585
0.158
0.1585
0.1595
0.1615
0.1625
0.161
0.1625
0.1635
0.163
0.164
0.1635
0.164
0.165
0.167
0.1655
0.166
0.167
0.1685
0.1655
0.168
0.168
0.1665
0.1685
0.1705
0.168
0.169
0.1705
0.17250000000000001
0.171
0.171
0.171
0.17300000000000001
0.17200000000000001
0.17300000000000001
0.17300000000000001
0.17350000000000002
0.17500000000000002
0.17400000000000002
0.17200000000000001
0.176
0.178
0.296
1.3475
1.698
1.8775
2.0025
2.0475
2.0475
2.0475
2.0475
2.0475
2.0475
2.0475
2.0475
2.0475
2.0475
2.0475
1.891
1.4875
1.3065
1.209
1.1115
0.9825
0.834
0.7000000000000001
0.5755
0.47800000000000004
0.3965
0.3365
0.291
0.2525
0.224
0.202
0.184
0.1695
0.1585
0.1505
0.14300000000000002
0.139
0.1335
0.1315
0.1265
0.1275
0.1255
0.1245
0.122
0.1205
0.121
0.12
0.1215
0.1225
0.1225
0.1225
0.123
0.1235
0.124
0.125
0.126
0.126
0.127
0.128
0.1275
0.128
0.1285
0.1285
0.129
0.129
0.1305
0.1305
0.131
0.131
0.1315
0.132
0.132
0.133
0.1335
0.1325
0.133
0.132
0.133
0.133
0.1335
0.135
0.1375
0.138
0.138
0.1385
0.139
0.1395
0.1405
0.14100000000000001
0.14250000000000002
0.14300000000000002
0.14350000000000002
0.14250000000000002
0.14250000000000002
0.14400000000000002
0.14400000000000002
0.14400000000000002
0.14400000000000002
0.145
0.145
0.1455
0.1465
0.1465
0.147
0.1475
0.1485
0.149
0.15
0.1505
0.151
0.1515
0.152
0.1525
0.153
0.1535
0.153
0.153
0.1545
0.155
0.155
0.1555
0.156
0.1565
0.1585
0.159
0.158
0.159
0.159
0.159
0.16
0.1605
0.1615
0.161
0.1615
0.1615
0.1625
0.1625
0.1635
0.1645
0.164
0.1645
0.165
0.1655
0.166
0.1675
0.1675
0.167
0.168
0.1685
0.1685
0.1695
0.1705
0.17
0.1695
0.1695
0.169
0.1675
0.1695
0.17350000000000002
0.181
0.19
0.2025
0.2285
0.2795
0.4185
0.7295
1.086
1.3605
1.5755000000000001
1.7585
1.8935
1.9995
2.0475
2.0475
1.9955
1.8965
1.857
1.9515
2.0475
2.0475
2.0475
2.0475
2.0475
2.0475
2.0475
1.797
1.4755
1.2835
1.1975
1.1155
0.9995
0.8615
0.7265
0.6055
0.5035000000000001
0.418
0.354
0.3035
0.2635
0.233
0.209
0.19
0.1715
0.16
0.1505
0.14150000000000001
0.135
0.1315
0.1285
0.1255
0.1245
0.123
0.122
0.124
0.1215
0.1215
0.1215
0.11950000000000001
0.12
0.11800000000000001
0.11950000000000001
0.11750000000000001
0.1165
0.1165
0.11850000000000001
0.11950000000000001
0.11950000000000001
0.121
0.1225
0.1235
0.1235
0.1255
0.127
0.1265
0.128
0.13
0.1305
0.1305
0.131
0.1295
0.13
0.1315
0.1295
0.129
0.129
0.1305
0.1315
0.131
0.1335
0.1345
0.1355
0.1365
0.1365
0.137
0.138
0.1385
0.139
0.1395
0.14100000000000001
0.14250000000000002
0.14150000000000001
0.14250000000000002
0.14350000000000002
0.14250000000000002
0.14300000000000002
0.14350000000000002
0.14300000000000002
0.1455
0.14400000000000002
0.14400000000000002
0.1445
0.1465
0.146
0.147
0.146
0.147
0.147
0.1475
0.147
0.149
0.1505
0.1495
0.1535
0.151
0.152
0.1515
0.1525
0.154
0.153
0.155
0.1555
0.1555
0.1565
0.1575
0.157
0.158
0.1605
0.1595
0.159
0.1595
0.16
0.162
0.1625
0.162
0.163
0.16
0.1635
0.1635
0.165
0.164
0.1635
0.1655
0.1635
0.1625
0.164
0.1655
0.166
0.165
0.1655
0.166
0.1645
0.1645
0.165
0.1685
0.17550000000000002
0.2485
0.5865
1.071
1.3975
1.6365
2.0475
2.0475
2.0475
2.0475
2.0475
1.6375
1.319
1.166
1.09
0.9765
0.8305
0.663
0.523
0.40900000000000003
0.3245
0.268
0.2285
0.1995
0.1785
0.16
0.149
0.14
0.134
0.129
0.1255
0.1225
0.121
0.11950000000000001
0.11900000000000001
0.11750000000000001
0.11750000000000001
0.11750000000000001
0.11750000000000001
0.117
0.1165
0.11750000000000001
0.1165
0.115
0.1205
0.11900000000000001
0.11850000000000001
0.117
0.11900000000000001
0.11750000000000001
0.11950000000000001
0.11850000000000001
0.11950000000000001
0.11950000000000001
0.121
0.1215
0.1225
0.1235
0.1245
0.1265
0.1265
0.127
0.128
0.1265
0.128
0.129
0.13
0.1305
0.1315
0.1325
0.1325
0.1345
0.1335
0.1345
0.135
0.1355
0.1355
0.137
0.137
0.1375
0.1385
0.139
0.1395
0.14
0.14
0.14
0.1405
0.14150000000000001
0.14200000000000002
0.14200000000000002
0.14350000000000002
0.14300000000000002
0.14250000000000002
0.14400000000000002
0.14300000000000002
0.145
0.14400000000000002
0.1455
0.146
0.1455
0.146
0.147
0.1475
0.1485
0.148
0.15
0.15
0.151
0.151
0.1505
0.1515
0.153
0.154
0.153
0.1535
0.154
0.155
0.1545
0.1545
0.156
0.1565
0.1575
0.1575
0.1575
0.158
0.1585
0.1595
0.158
0.16
0.161
0.161
0.1615
0.162
0.1625
0.162
0.1625
0.1635
0.1635
0.1645
0.165
0.1655
0.1655
0.167
0.1665
0.1665
0.167
0.166
0.1665
0.166
0.165
0.1645
0.1635
0.164
0.168
0.17550000000000002
0.1835
0.196
0.2255
0.3045
0.5035000000000001
0.9035
1.2175
1.4635
1.6575
1.8135000000000001
1.941
2.0365
2.0475
2.0475
2.0475
2.0475
2.0475
2.0475
2.0475
2.0475
2.0475
2.0475
2.0475
2.0475
2.0475
1.743
1.4445000000000001
1.2685
1.1455
1.0205
0.8825000000000001
0.741
0.6185
0.513
0.4295
0.361
0.2945
0.2545
0.2235
0.1975
0.1775
0.1615
0.149
0.14
0.1315
0.1245
0.11950000000000001
0.1165
0.114
0.1135
0.1135
0.1135
0.1125
0.112
0.112
0.1125
0.112
0.1135
0.1135
0.113
0.113
0.1135
0.111
0.1115
0.1105
0.1105
0.11
0.11
0.1115
0.1125
0.115
0.116
0.115
0.1145
0.115
0.1165
0.116
0.1155
0.117
0.116
0.11850000000000001
0.11950000000000001
0.1205
0.122
0.1225
0.1235
0.124
0.1245
0.124
0.1255
0.128
0.127
0.1285
0.1285
0.129
0.129
0.1295
0.1295
0.1315
0.132
0.1335
0.1315
0.131
0.1315
0.131
0.132
0.1345
0.1345
0.1335
0.1335
0.1355
0.135
0.1365
0.1405
0.14100000000000001
0.136
0.1385
0.1395
0.14150000000000001
0.14100000000000001
0.14300000000000002
0.14350000000000002
0.14400000000000002
0.1445
0.1445
0.1465
0.1495
0.1495
0.151
0.15
0.1495
0.1525
0.152
0.152
0.1505
0.1535
0.1525
0.154
0.1545
0.1565
0.1555
0.156
0.1575
0.158
0.159
0.16
0.161
0.1605
0.16
0.1605
0.161
0.1595
0.16
0.1635
0.167
0.1705
0.1855
0.224
0.357
0.6935
1.0635000000000001
1.3675
1.5875000000000001
1.7675
1.901
2.0095
2.0475
2.0475
2.0475
2.0475
2.0475
2.0475
2.0475
2.0475
2.0475
2.0475
2.0475
2.0475
1.934
1.5975000000000001
1.2925
1.1395
1.0555
0.9645
0.8495
0.726
0.609
0.509
0.425
0.36
0.307
0.2655
0.2335
0.20750000000000002
0.1855
0.1705
0.157
0.1475
0.1395
0.1335
0.1285
0.125
0.123
0.121
0.11950000000000001
0.11800000000000001
0.11750000000000001
0.117
0.116
0.1165
0.116
0.1165
0.116
0.117
0.117
0.11750000000000001
0.11750000000000001
0.11800000000000001
0.11900000000000001
0.11850000000000001
0.11850000000000001
0.11900000000000001
0.11950000000000001
0.1205
0.12
0.12
0.1215
0.123
0.122
0.123
0.1255
0.126
0.1255
0.1245
0.1245
0.1235
0.126
0.126
0.125
0.125
0.126
0.126
0.127
0.129
0.1295
0.1295
0.1305
0.131
0.133
0.133
0.1345
0.1345
0.1345
0.135
0.1365
0.1365
0.1375
0.1375
0.137
0.137
0.138
0.1375
0.137
0.136
0.1365
0.1365
0.138
0.137
0.1385
0.1395
0.14
0.14150000000000001
0.14250000000000002
0.14350000000000002
0.14100000000000001
0.14300000000000002
0.14350000000000002
0.14350000000000002
0.1445
0.1445
0.1455
0.146
0.1475
0.148
0.149
0.1495
0.15
0.1515
0.152
0.1525
0.153
0.154
0.1555
0.1555
0.1555
0.156
0.1565
0.1565
0.1575
0.158
0.1585
0.159
0.159
0.1595
0.16
0.16
0.1615
0.162
0.1625
0.1625
0.163
0.163
0.163
0.163
0.164
0.165
0.1645
0.1635
0.1635
0.164
0.1645
0.166
0.1685
0.17450000000000002
0.1835
0.197
0.23550000000000001
0.3925
0.736
1.0905
1.373
1.5835000000000001
1.7615
1.8955
1.9995
2.0475
2.0475
2.0475
2.0475
2.0475
2.0475
2.0475
2.0475
2.0475
2.0475
2.0475
2.0475
2.0475
1.8515000000000001
1.469
1.2695
1.137
1.0265
0.9035
0.7655000000000001
0.6035
0.489
0.399
0.3245
0.271
0.2255
0.1955
0.17200000000000001
0.152
0.1395
0.126
0.122
0.11750000000000001
0.112
0.1105
0.1085
0.106
0.1055
0.107
0.107
0.108
0.1055
0.108
0.1095
0.109
0.1105
0.111
0.109
0.113
0.114
0.1125
0.1135
0.115
0.116
0.117
0.11750000000000001
0.11900000000000001
0.11900000000000001
0.11850000000000001
0.11950000000000001
0.11900000000000001
0.121
0.1225
0.1205
0.1205
0.125
0.1245
0.1245
0.124
0.1245
0.125
0.1255
0.127
0.1265
0.126
0.1275
0.1275
0.127
0.1265
0.127
0.129
0.1305
0.133
0.134
0.136
0.136
0.1375
0.1385
0.138
0.14
0.1395
0.14
0.14150000000000001
0.14250000000000002
0.14250000000000002
0.14300000000000002
0.14250000000000002
0.14350000000000002
0.14350000000000002
0.14400000000000002
0.145
0.145
0.147
0.146
0.147
0.1475
0.149
0.149
0.1495
0.1505
0.151
0.1515
0.151
0.152
0.1525
0.1525
0.1525
0.1535
0.153
0.155
0.1555
0.1565
0.156
0.1565
0.1575
0.1575
0.1575
0.1585
0.1585
0.1595
0.159
0.1595
0.1605
0.1605
0.161
0.1605
0.161
0.1605
0.159
0.159
0.164
0.17200000000000001
0.1835
0.20350000000000001
0.268
0.35100000000000003
0.5345
0.883
1.2005000000000001
1.4625000000000001
1.6640000000000001
1.8215000000000001
1.9465000000000001
2.0455
2.0475
2.0475
1.9835
1.933
2.0155
2.0475
2.0475
2.0475
2.0475
2.0475
2.0475
2.0475
2.0425
1.7085000000000001
1.4175
1.3145
1.2475
1.1395
0.9915
0.8355
0.6925
0.5725
0.47450000000000003
0.392
0.3305
0.28400000000000003
0.2435
0.2145
0.191
0.17200000000000001
0.1575
0.1455
0.1365
0.13
0.125
0.1205
0.117
0.1145
0.1135
0.1115
0.111
0.11
0.1095
0.1095
0.1105
0.109
0.109
0.1095
0.11
0.1105
0.111
0.111
0.111
0.1125
0.1115
0.1125
0.113
0.1135
0.114
0.1155
0.1155
0.1155
0.116
0.1165
0.1165
0.11850000000000001
0.11800000000000001
0.11750000000000001
0.11800000000000001
0.11900000000000001
0.11850000000000001
0.11900000000000001
0.11950000000000001
0.11950000000000001
0.121
0.1205
0.121
0.1225
0.122
0.124
0.124
0.1245
0.126
0.1255
0.126
0.1285
0.1245
0.126
0.1265
0.1255
0.126
0.125
0.125
0.126
0.1265
0.1255
0.127
0.1285
0.1275
0.13
0.1305
0.1315
0.1305
0.131
0.1325
0.1335
0.134
0.135
0.1355
0.1365
0.1375
0.139
0.139
0.139
0.1405
0.1405
0.14250000000000002
0.14200000000000002
0.14250000000000002
0.14250000000000002
0.14400000000000002
0.14200000000000002
0.14100000000000001
0.14
0.1405
0.14200000000000002
0.14250000000000002
0.14350000000000002
0.14400000000000002
0.145
0.146
0.146
0.148
0.1475
0.1485
0.1495
0.1505
0.15
0.1505
0.152
0.152
0.1515
0.1515
0.153
0.153
0.15
0.15
0.152
0.1495
0.1485
0.1505
0.151
0.1525
0.1535
0.162
0.1715
0.254
0.529
0.9975
1.3935
1.6065
1.7725
1.903
2.0035
2.0475
2.0475
2.0475
2.0475
2.0475
2.0475
2.0475
2.0475
1.1395
0.8365
0.6325000000000001
0.4865
0.373
0.301
0.248
0.201
0.171
0.1455
0.133
0.1225
0.1135
0.1055
0.10200000000000001
0.0995
0.0975
0.095
0.0965
0.093
0.0905
0.092
0.0935
0.094
0.0955
0.0965
0.0975
0.0985
0.099
0.1005
0.10200000000000001
0.10250000000000001
0.10400000000000001
0.1045
0.105
0.1055
0.106
0.1065
0.107
0.108
0.1085
0.109
0.1095
0.1105
0.111
0.112
0.1115
0.1125
0.1125
0.113
0.115
0.116
0.1155
0.115
0.1155
0.1165
0.117
0.11800000000000001
0.11800000000000001
0.11750000000000001
0.11900000000000001
0.11900000000000001
0.1205
0.11950000000000001
0.12
0.1205
0.1205
0.1215
0.1205
0.1205
0.1215
0.1225
0.1235
0.1245
0.1255
0.126
0.126
0.1275
0.128
0.1285
0.128
0.1295
0.13
0.1315
0.1315
0.1315
0.133
0.133
0.1335
0.134
0.135
0.1355
0.136
0.1355
0.136
0.1375
0.1375
0.1385
0.139
0.1395
0.1395
0.139
0.14100000000000001
0.14150000000000001
0.14150000000000001
0.14200000000000002
0.14250000000000002
0.14150000000000001
0.14250000000000002
0.14300000000000002
0.14300000000000002
0.14350000000000002
0.14350000000000002
0.145
0.1455
0.1455
0.1465
0.146
0.1475
0.1465
0.147
0.148
0.148
0.1505
0.1505
0.1505
0.15
0.1495
0.149
0.1485
0.148
0.15
0.153
0.1585
0.1645
0.177
0.2295
0.363
0.6655
1.0385
1.3275000000000001
1.561
1.7355
1.8755
1.9845
2.0475
2.0475
2.0475
2.0475
2.0475
2.0475
2.0475
2.0475
2.0475
2.0475
2.0475
2.0475
2.0475
1.8915
1.5475
1.291
1.1505
1.0385
0.924
0.8015
0.6775
0.5650000000000001
0.4635
0.384
0.322
0.2735
0.23500000000000001
0.20350000000000001
0.1785
0.159
0.146
0.133
0.125
0.11900000000000001
0.112
0.1085
0.1055
0.101
0.0995
0.0995
0.0975
0.0965
0.0965
0.0965
0.096
0.096
0.096
0.0955
0.097
0.0965
0.095
0.095
0.095
0.0955
0.0955
0.0965
0.097
0.1
0.099
0.1015
0.101
0.1005
0.1015
0.10250000000000001
0.10300000000000001
0.1055
0.10400000000000001
0.10350000000000001
0.1055
0.10400000000000001
0.10400000000000001
0.10350000000000001
0.10300000000000001
0.1045
0.105
0.105
0.1075
0.107
0.1085
0.1105
0.1105
0.1115
0.1105
0.1105
0.113
0.1115
0.1155
0.116
0.1155
0.1155
0.11750000000000001
0.11750000000000001
0.11950000000000001
0.11850000000000001
0.11950000000000001
0.12
0.11900000000000001
0.12
0.11900000000000001
0.11950000000000001
0.117
0.11850000000000001
0.11950000000000001
0.121
0.1225
0.1225
0.125
0.1245
0.1275
0.126
0.125
0.126
0.127
0.129
0.13
0.133
0.132
0.134
0.1305
0.134
0.1345
0.1355
0.134
0.137
0.138
0.1365
0.1335
0.1355
0.138
0.14
0.14200000000000002
0.14200000000000002
0.14350000000000002
0.146
0.14400000000000002
0.14350000000000002
0.14200000000000002
0.14200000000000002
0.1445
0.148
0.1545
0.178
0.268
0.51
0.8995
1.2225
1.478
1.6705
1.8265
1.9495
2.0475
2.0475
2.0475
2.0475
2.0475
2.0475
2.0475
2.0475
2.0475
2.0475
2.0475
2.0475
2.0475
2.0395
1.7035
1.3875
1.171
1.0525
0.9525
0.8415
0.7195
0.6035
0.5
0.41500000000000004
0.3425
0.28800000000000003
0.2465
0.2135
0.187
0.1675
0.153
0.14
0.131
0.1225
0.117
0.1135
0.109
0.1055
0.10350000000000001
0.10250000000000001
0.101
0.1
0.099
0.099
0.099
0.0995
0.1005
0.1005
0.101
0.1005
0.1
0.1015
0.1005
0.1015
0.10200000000000001
0.10200000000000001
0.10350000000000001
0.10350000000000001
0.10400000000000001
0.105
0.1045
0.105
0.1055
0.106
0.107
0.107
0.1065
0.109
0.1095
0.1095
0.11
0.1105
0.1115
0.1105
0.111
0.1135
0.1135
0.115
0.1155
0.1155
0.1155
0.116
0.11750000000000001
0.11750000000000001
0.11800000000000001
0.11750000000000001
0.11900000000000001
0.11950000000000001
0.11850000000000001
0.11900000000000001
0.1205
0.11900000000000001
0.12
0.11900000000000001
0.1205
0.1205
0.122
0.1235
0.124
0.1245
0.1255
0.126
0.1245
0.126
0.1275
0.127
0.127
0.127
0.1275
0.128
0.128
0.1285
0.131
0.1325
0.1295
0.1305
0.1315
0.1305
0.13
0.1315
0.1315
0.135
0.135
0.132
0.1355
0.135
0.1355
0.1355
0.136
0.136
0.137
0.1385
0.1405
0.14100000000000001
0.14250000000000002
0.14200000000000002
0.14350000000000002
0.14350000000000002
0.145
0.1455
0.145
0.1455
0.1465
0.1485
0.148
0.1485
0.1485
0.15
0.1495
0.15
0.1505
0.15
0.1505
0.1515
0.153
0.154
0.1565
0.1595
0.1635
0.17300000000000001
0.2115
0.3325
0.5685
0.935
1.2385
1.4755
1.6625
1.8095
1.9265
2.0275
2.0475
2.0475
2.0475
2.0475
2.0475
2.0475
2.0475
2.0475
2.0475
2.0475
2.0475
2.0475
2.0475
1.8425
1.5385
1.3885
1.2945
1.1835
1.0355
0.862
0.7115
0.5815
0.47500000000000003
0.3855
0.3205
0.268
0.231
0.1995
0.17550000000000002
0.1555
0.14
0.129
0.11900000000000001
0.113
0.108
0.10300000000000001
0.1005
0.098
0.0965
0.0955
0.094
0.0945
0.093
0.0915
0.0915
0.0935
0.093
0.0945
0.095
0.0965
0.0935
0.0965
0.097
0.0955
0.095
0.0955
0.099
0.0985
0.0985
0.098
0.0985
0.0995
0.1
0.099
0.1
0.10200000000000001
0.10250000000000001
0.105
0.10300000000000001
0.1045
0.107
0.1075
0.108
0.1095
0.1115
0.109
0.1075
0.112
0.1105
0.109
0.11
0.1085
0.109
0.1115
0.1125
0.1135
0.115
0.115
0.1165
0.11800000000000001
0.1215
0.11750000000000001
0.11950000000000001
0.121
0.121
0.1205
0.1235
0.1265
0.1265
0.1245
0.125
0.1265
0.1285
0.128
0.1305
0.131
0.132
0.1325
0.134
0.1345
0.1355
0.136
0.136
0.1375
0.137
0.1375
0.1385
0.139
0.1395
0.14
0.1405
0.1405
0.1405
0.14100000000000001
0.14200000000000002
0.14200000000000002
0.14300000000000002
0.14300000000000002
0.14300000000000002
0.14350000000000002
0.14400000000000002
0.14400000000000002
0.145
0.1445
0.14350000000000002
0.14400000000000002
0.14350000000000002
0.14400000000000002
0.14400000000000002
0.1485
0.1595
0.17250000000000001
0.1865
0.21
0.261
0.388
0.6895
1.0575
1.3385
1.559
1.7315
1.8715
1.9815
2.0475
2.0475
2.029
1.9835
2.0475
2.0475
2.0475
2.0475
2.0475
2.0475
2.0475
2.0475
2.0475
1.9435
1.6085
1.3795
1.2615
1.1495
1.0110000000000001
0.8515
0.706
0.5815
0.47700000000000004
0.39
0.3265
0.276
0.23550000000000001
0.20350000000000001
0.1785
0.159
0.1445
0.133
0.1235
0.117
0.111
0.107
0.10400000000000001
0.10200000000000001
0.1
0.098
0.097
0.0965
0.0955
0.0955
0.0955
0.096
0.0965
0.0965
0.096
0.0965
0.0975
0.099
0.0985
0.098
0.099
0.0995
0.0995
0.0995
0.1
0.1005
0.10200000000000001
0.10200000000000001
0.10250000000000001
0.10300000000000001
0.10400000000000001
0.10350000000000001
0.10350000000000001
0.105
0.10400000000000001
0.1045
0.1055
0.106
0.106
0.108
0.1075
0.108
0.109
0.11
0.1105
0.111
0.1115
0.1125
0.113
0.1135
0.115
0.114
0.115
0.115
0.1155
0.11750000000000001
0.116
0.11800000000000001
0.11850000000000001
0.11850000000000001
0.11850000000000001
0.11900000000000001
0.11950000000000001
0.12
0.12
0.1205
0.12
0.1215
0.122
0.123
0.1245
0.1245
0.125
0.126
0.126
0.1255
0.126
0.1265
0.1265
0.1275
0.129
0.131
0.1315
0.131
0.128
0.129
0.1305
0.1295
0.1325
0.131
0.1285
0.129
0.1295
0.13
0.1285
0.1295
0.1275
0.1305
0.132
0.1325
0.1315
0.132
0.1325
0.1315
0.133
0.136
0.137
0.138
0.14
0.14
0.14150000000000001
0.14150000000000001
0.14400000000000002
0.14400000000000002
0.14250000000000002
0.145
0.14400000000000002
0.1445
0.14300000000000002
0.14350000000000002
0.1455
0.145
0.1515
0.1555
0.17350000000000002
0.326
0.7195
1.1515
1.4515
1.6795
1.855
1.9935
2.0475
2.0475
2.0475
2.0475
2.0475
2.0475
2.0475
2.0475
2.0475
2.0475
2.0475
2.0475
1.7165000000000001
1.4115
0.8465
0.34800000000000003
0.254
0.196
0.163
0.14100000000000001
0.1225
0.11
0.1005
0.096
0.0915
0.08650000000000001
0.0845
0.078
0.0795
0.0765
0.078
0.078
0.078
0.077
0.0765
0.082
0.0785
0.0775
0.0765
0.078
0.0775
0.0855
0.0825
0.081
0.0825
0.082
0.0825
0.082
0.0835
0.08650000000000001
0.088
0.0915
0.092
0.092
0.0935
0.0945
0.0955
0.0955
0.096
0.097
0.098
0.0985
0.0995
0.0995
0.1
0.10250000000000001
0.1015
0.10400000000000001
0.10250000000000001
0.10300000000000001
0.10400000000000001
0.1045
0.1045
0.10400000000000001
0.1055
0.106
0.1075
0.1065
0.1075
0.1085
0.1085
0.109
0.11
0.1105
0.112
0.1125
0.1115
0.112
0.1135
0.114
0.1135
0.114
0.1155
0.1155
0.116
0.1165
0.117
0.11750000000000001
0.11800000000000001
0.11850000000000001
0.11950000000000001
0.11950000000000001
0.12
0.1205
0.121
0.1215
0.1225
0.1225
0.124
0.123
0.1235
0.1225
0.1255
0.1225
0.1245
0.125
0.126
0.1265
0.1265
0.1275
0.1295
0.1305
0.1305
0.1315
0.1315
0.132
0.1325
0.133
0.1325
0.1335
0.135
0.1345
0.1355
0.135
0.136
0.137
0.137
0.137
0.1365
0.1365
0.1385
0.1465
0.158
0.1685
0.188
0.247
0.3835
0.6575
1.028
1.314
1.5395
1.7175
1.859
1.9705000000000001
2.0475
2.0475
2.0475
2.0475
2.0475
2.0475
2.0475
2.0475
2.0475
2.0475
2.0475
2.0475
2.0475
2.0105
1.6605
1.387
1.2615
1.1715
1.0495
0.8985
0.7475
0.6155
0.503
0.41300000000000003
0.337
0.28150000000000003
0.23550000000000001
0.1995
0.17200000000000001
0.151
0.135
0.122
0.111
0.1045
0.0975
0.0925
0.089
0.08650000000000001
0.084
0.082
0.081
0.0815
0.081
0.08
0.08
0.0805
0.08
0.0805
0.081
0.082
0.082
0.0825
0.082
0.0815
0.0825
0.084
0.0845
0.084
0.085
0.0855
0.08650000000000001
0.0855
0.0855
0.08600000000000001
0.08600000000000001
0.08750000000000001
0.08750000000000001
0.08650000000000001
0.08750000000000001
0.08750000000000001
0.088
0.0885
0.089
0.0895
0.0885
0.0915
0.0925
0.0915
0.0935
0.0925
0.094
0.095
0.094
0.095
0.096
0.0955
0.0945
0.099
0.099
0.0995
0.101
0.1015
0.101
0.1015
0.10200000000000001
0.10300000000000001
0.10400000000000001
0.10400000000000001
0.10400000000000001
0.105
0.1045
0.1075
0.1055
0.1075
0.1075
0.108
0.107
0.1075
0.1085
0.11
0.109
0.1095
0.109
0.11
0.115
0.1145
0.1165
0.116
0.1165
0.115
0.116
0.11950000000000001
0.11900000000000001
0.1205
0.121
0.1255
0.1215
0.122
0.11950000000000001
0.1255
0.124
0.128
0.1265
0.1265
0.128
0.125
0.1275
0.128
0.13
0.1365
0.1475
0.1685
0.217
0.376
0.7000000000000001
1.098
1.3745
1.5895000000000001
1.7715
1.9085
2.015
2.0475
2.0475
2.0475
2.0475
2.0475
2.0475
2.0475
2.0475
2.0475
2.0475
2.0475
2.0475
2.0475
1.8175000000000001
1.4655
1.2475
1.1675
1.1055
1.0030000000000001
0.8615
0.7215
0.5955
0.4845
0.397
0.3295
0.2755
0.2335
0.199
0.17350000000000002
0.1525
0.136
0.1235
0.114
0.107
0.1005
0.0955
0.0915
0.0895
0.08700000000000001
0.08600000000000001
0.085
0.084
0.0835
0.083
0.0835
0.0835
0.083
0.084
0.0845
0.0845
0.0845
0.085
0.085
0.08600000000000001
0.0855
0.08700000000000001
0.08650000000000001
0.08700000000000001
0.089
0.088
0.0895
0.09
0.0905
0.09
0.092
0.092
0.093
0.094
0.093
0.092
0.092
0.0925
0.0935
0.094
0.095
0.0965
0.0965
0.0975
0.0985
0.0985
0.0995
0.1005
0.1015
0.10200000000000001
0.10200000000000001
0.10250000000000001
0.10300000000000001
0.10300000000000001
0.10400000000000001
0.10400000000000001
0.1055
0.1055
0.1055
0.106
0.1065
0.108
0.108
0.11
0.1095
0.1105
0.111
0.1115
0.112
0.1125
0.113
0.1125
0.1135
0.1155
0.115
0.115
0.116
0.1165
0.11750000000000001
0.11750000000000001
0.11800000000000001
0.12
0.11950000000000001
0.11950000000000001
0.11950000000000001
0.1205
0.11950000000000001
0.121
0.121
0.1225
0.122
0.123
0.1235
0.1245
0.125
0.125
0.1255
0.1275
0.129
0.1285
0.1285
0.1285
0.1285
0.128
0.129
0.128
0.1295
0.1305
0.1295
0.1285
0.1305
0.1295
0.13
0.131
0.1315
0.131
0.133
0.1345
0.136
0.1375
0.1395
0.14400000000000002
0.159
0.17400000000000002
0.185
0.198
0.2405
0.3785
0.7415
1.093
1.359
1.5695000000000001
1.7475
1.8825
1.9885
2.0475
2.0475
2.0475
2.0475
2.0475
2.0475
2.0475
2.0475
2.0475
2.0475
2.0475
2.0475
2.0475
2.0475
1.7095
1.423
1.2725
1.1595
1.039
0.8995
0.7585000000000001
0.6195
0.51
0.418
0.34500000000000003
0.28150000000000003
0.23650000000000002
0.201
0.17450000000000002
0.1525
0.1375
0.1255
0.1155
0.106
0.1015
0.0955
0.0915
0.091
0.088
0.08600000000000001
0.08650000000000001
0.0855
0.084
0.082
0.0815
0.0805
0.083
0.084
0.081
0.08650000000000001
0.0855
0.08600000000000001
0.08650000000000001
0.08600000000000001
0.08650000000000001
0.08600000000000001
0.083
0.0855
0.082
0.0845
0.08750000000000001
0.09
0.08750000000000001
0.08750000000000001
0.08650000000000001
0.09
0.091
0.0915
0.0895
0.0885
0.092
0.0935
0.095
0.096
0.096
0.097
0.0975
0.096
0.1
0.096
0.101
0.101
0.10300000000000001
0.10400000000000001
0.1075
0.106
0.1085
0.1075
0.1105
0.108
0.108
0.1115
0.111
0.112
0.1125
0.1125
0.114
0.1165
0.117
0.11800000000000001
0.11850000000000001
0.11950000000000001
0.11950000000000001
0.121
0.121
0.122
0.123
0.1235
0.125
0.125
0.1255
0.1265
0.126
0.1275
0.1275
0.1285
0.1295
0.13
0.13
0.13
0.1305
0.1305
0.131
0.132
0.1325
0.1335
0.133
0.133
0.135
0.1355
0.1365
0.1375
0.1375
0.1365
0.1375
0.138
0.137
0.138
0.1365
0.1355
0.1335
0.1365
0.146
0.161
0.178
0.2185
0.3005
0.4805
0.8295
1.1665
1.4255
1.6295
1.7885
1.9165
2.0195
2.0475
2.0475
2.0475
2.0475
2.0475
2.0475
2.0475
2.0475
2.0475
2.0475
2.0475
2.0475
2.0185
1.6755
1.3755
1.2355
1.1905000000000001
1.103
0.97
0.8195
0.6775
0.5545
0.454
0.373
0.3115
0.2635
0.2235
0.1935
0.169
0.1505
0.1355
0.1235
0.115
0.1075
0.10300000000000001
0.098
0.0945
0.0925
0.0905
0.0895
0.088
0.08750000000000001
0.08700000000000001
0.08750000000000001
0.08700000000000001
0.08700000000000001
0.08700000000000001
0.08700000000000001
0.08750000000000001
0.08700000000000001
0.08750000000000001
0.089
0.089
0.0885
0.0895
0.0895
0.0895
0.092
0.0915
0.0915
0.0915
0.0915
0.092
0.093
0.094
0.0945
0.096
0.097
0.0965
0.097
0.095
0.094
0.094
0.0945
0.096
0.097
0.0985
0.0995
0.1015
0.101
0.1015
0.10400000000000001
0.1045
0.1045
0.106
0.1065
0.1065
0.1075
0.108
0.108
0.1085
0.11
0.1105
0.111
0.111
0.1115
0.1125
0.114
0.113
0.113
0.114
0.1145
0.1155
0.1155
0.1155
0.117
0.117
0.117
0.11950000000000001
0.11750000000000001
0.11950000000000001
0.11950000000000001
0.11850000000000001
0.11950000000000001
0.11950000000000001
0.1205
0.12
0.12
0.1205
0.1205
0.1215
0.122
0.123
0.1245
0.126
0.125
0.1265
0.1265
0.1265
0.1265
0.1285
0.128
0.1285
0.128
0.1285
0.1295
0.13
0.1315
0.1305
0.1305
0.1315
0.132
0.1335
0.1335
0.1345
0.134
0.1345
0.136
0.1365
0.1355
0.1375
0.1375
0.1355
0.135
0.136
0.1355
0.1365
0.1385
0.14150000000000001
0.1575
0.251
0.5125
0.9205
1.2475
1.5035
1.6935
1.845
1.9635
2.0475
2.0475
2.0475
2.0475
2.0475
2.0475
2.0475
2.0475
2.0475
2.0475
2.0475
2.0475
1.9875
1.5975000000000001
1.3325
1.2525
1.111
0.9425
0.7745
0.6265000000000001
0.5015000000000001
0.3935
0.306
0.2435
0.199
0.166
0.14350000000000002
0.1245
0.088
0.075
0.075
0.0745
0.0725
0.0735
0.0735
0.074
0.0765
0.078
0.0795
0.081
0.0785
0.082
0.082
0.0795
0.084
0.083
0.0835
0.0795
0.08650000000000001
0.084
0.08600000000000001
0.083
0.08750000000000001
0.08700000000000001
0.0855
0.08750000000000001
0.08650000000000001
0.0845
0.08700000000000001
0.088
0.091
0.091
0.0925
0.095
0.0965
0.098
0.0985
0.1005
0.1
0.1005
0.1015
0.10300000000000001
0.10300000000000001
0.10400000000000001
0.10400000000000001
0.10400000000000001
0.105
0.1045
0.105
0.1065
0.108
0.108
0.1085
0.109
0.1095
0.11
0.1115
0.112
0.1115
0.1115
0.113
0.1135
0.115
0.115
0.115
0.1155
0.1165
0.11750000000000001
0.117
0.11850000000000001
0.11850000000000001
0.11800000000000001
0.11900000000000001
0.12
0.12
0.11900000000000001
0.11950000000000001
0.1205
0.1205
0.121
0.1235
0.123
0.124
0.124
0.125
0.1255
0.1265
0.127
0.128
0.1275
0.128
0.13
0.1295
0.13
0.131
0.1315
0.1315
0.133
0.1325
0.1335
0.134
0.1335
0.1345
0.1345
0.135
0.1355
0.1355
0.1355
0.134
0.133
0.137
0.1485
0.1635
0.176
0.1935
0.2575
0.4205
0.733
1.085
1.3655
1.5935000000000001
1.7795
1.9115
2.0105
2.0475
2.0475
2.0475
2.0475
2.0475
2.0475
2.0475
2.0475
2.0475
2.0475
2.0475
2.0475
2.0475
1.8865
1.5485
1.3245
1.2225
1.1275
1.0010000000000001
0.8435
0.6965
0.5715
0.466
0.369
0.3045
0.2545
0.216
0.185
0.1615
0.14350000000000002
0.1275
0.116
0.1075
0.0995
0.0945
0.091
0.08750000000000001
0.0855
0.0825
0.082
0.081
0.0805
0.0805
0.0805
0.0805
0.0795
0.0795
0.0805
0.0805
0.0815
0.0815
0.081
0.082
0.0835
0.0845
0.0855
0.0835
0.0835
0.0845
0.08600000000000001
0.0855
0.08600000000000001
0.08600000000000001
0.08650000000000001
0.08650000000000001
0.088
0.088
0.0885
0.0885
0.0885
0.08650000000000001
0.088
0.08750000000000001
0.08750000000000001
0.08700000000000001
0.08750000000000001
0.0885
0.0905
0.091
0.0915
0.095
0.094
0.0955
0.0955
0.097
0.0965
0.0985
0.098
0.098
0.0995
0.101
0.1005
0.1005
0.10200000000000001
0.10300000000000001
0.1005
0.10350000000000001
0.1045
0.10250000000000001
0.1045
0.105
0.10350000000000001
0.106
0.1065
0.108
0.108
0.1075
0.1085
0.109
0.11
0.111
0.112
0.113
0.1115
0.113
0.1135
0.114
0.1135
0.1165
0.1145
0.11850000000000001
0.11750000000000001
0.11750000000000001
0.11800000000000001
0.11900000000000001
0.11850000000000001
0.12
0.11800000000000001
0.11950000000000001
0.11800000000000001
0.11950000000000001
0.1225
0.1235
0.124
0.1255
0.1255
0.1245
0.1235
0.125
0.13
0.124
0.1255
0.1285
0.1315
0.1375
0.1835
0.3375
0.6515
1.0495
1.3555
1.627
1.8095
1.949
2.0475
2.0475
2.0475
2.0475
2.0475
2.0475
2.0475
2.0475
2.0475
2.0475
2.0475
2.0475
1.8315000000000001
1.4945
1.3275000000000001
1.2085000000000001
1.0655000000000001
0.9035
0.7465
0.611
0.499
0.40800000000000003
0.331
0.2755
0.231
0.1975
0.17
0.1495
0.1325
0.117
0.1075
0.1
0.0925
0.088
0.0855
0.0825
0.081
0.078
0.0775
0.0775
0.077
0.0765
0.0765
0.0765
0.076
0.0765
0.0765
0.0775
0.079
0.078
0.079
0.0805
0.0805
0.08
0.081
0.0815
0.081
0.0825
0.083
0.083
0.084
0.084
0.0845
0.0855
0.08700000000000001
0.08750000000000001
0.08700000000000001
0.08650000000000001
0.0855
0.08650000000000001
0.08650000000000001
0.089
0.089
0.09
0.091
0.0915
0.092
0.0935
0.0945
0.094
0.0945
0.0955
0.096
0.0955
0.097
0.097
0.098
0.098
0.099
0.1
0.1005
0.101
0.101
0.10250000000000001
0.10300000000000001
0.10300000000000001
0.10300000000000001
0.10400000000000001
0.1045
0.1045
0.1055
0.1045
0.106
0.1055
0.107
0.1085
0.1075
0.1085
0.1095
0.11
0.1115
0.1115
0.112
0.112
0.113
0.1135
0.114
0.115
0.1145
0.1145
0.1165
0.1165
0.117
0.11750000000000001
0.11800000000000001
0.11900000000000001
0.11900000000000001
0.11900000000000001
0.12
0.12
0.11900000000000001
0.11950000000000001
0.121
0.1215
0.122
0.1225
0.1235
0.1245
0.1255
0.126
0.1255
0.1255
0.1275
0.128
0.1275
0.1285
0.1295
0.129
0.1295
0.13
0.131
0.129
0.13
0.13
0.133
0.1375
0.146
0.1525
0.1625
0.2135
0.4205
0.8365
1.1805
1.4475
1.6475
1.8035
1.9295
2.027
2.0475
2.0475
2.0475
2.0475
2.0475
2.0475
2.0475
2.0475
2.0475
2.0475
2.0475
2.0475
2.0475
1.7975
1.4845
1.3095
1.21
1.0935
0.9465
0.7895
0.6485
0.5275
0.4265
0.34950000000000003
0.28300000000000003
0.234
0.1985
0.169
0.14400000000000002
0.1265
0.1135
0.10200000000000001
0.091
0.0835
0.08
0.0755
0.075
0.0735
0.07
0.069
0.07050000000000001
0.068
0.07050000000000001
0.07050000000000001
0.069
0.0695
0.0695
0.0695
0.07150000000000001
0.07150000000000001
0.0725
0.07150000000000001
0.0725
0.0735
0.073
0.073
0.0745
0.0755
0.077
0.0755
0.077
0.0775
0.0785
0.0815
0.079
0.0805
0.0815
0.081
0.0805
0.0815
0.0805
0.0805
0.0835
0.0825
0.0855
0.0845
0.084
0.0855
0.085
0.084
0.08750000000000001
0.09
0.094
0.0935
0.09
0.0935
0.091
0.0935
0.0945
0.094
0.0975
0.0975
0.0965
0.0975
0.099
0.0985
0.0995
0.10300000000000001
0.10400000000000001
0.10200000000000001
0.107
0.105
0.106
0.107
0.108
0.1085
0.108
0.11
0.1115
0.1125
0.1125
0.1135
0.115
0.1155
0.1165
0.11750000000000001
0.11800000000000001
0.11800000000000001
0.11950000000000001
0.11950000000000001
0.12
0.1205
0.1205
0.1205
0.1215
0.122
0.123
0.123
0.124
0.125
0.125
0.1265
0.1265
0.127
0.1265
0.1265
0.126
0.126
0.125
0.125
0.128
0.1335
0.139
0.149
0.20800000000000002
0.3885
0.6875
1.0535
1.3375000000000001
1.5715000000000001
1.7515
1.8875
1.9955
2.0475
2.0475
2.0475
2.0475
2.0475
2.0475
2.0475
2.0475
2.0475
2.0475
2.0475
2.0475
2.0475
1.9515
1.603
1.3435000000000001
1.2215
1.139
1.0210000000000001
0.8575
0.706
0.5715
0.4605
0.3745
0.308
0.2585
0.219
0.188
0.1645
0.145
0.1285
0.117
0.108
0.1
0.0945
0.0895
0.08600000000000001
0.0835
0.081
0.0795
0.079
0.078
0.078
0.078
0.078
0.0775
0.0785
0.079
0.0785
0.079
0.079
0.0795
0.0805
0.0805
0.081
0.0815
0.082
0.0825
0.0835
0.083
0.085
0.085
0.085
0.08600000000000001
0.08600000000000001
0.0855
0.08700000000000001
0.088
0.08650000000000001
0.08750000000000001
0.08750000000000001
0.08750000000000001
0.0885
0.0885
0.0895
0.0905
0.091
0.093
0.0925
0.0935
0.094
0.094
0.095
0.0955
0.0965
0.0975
0.098
0.098
0.0985
0.0995
0.1005
0.101
0.1015
0.1015
0.10200000000000001
0.10250000000000001
0.10300000000000001
0.10350000000000001
0.10350000000000001
0.1045
0.1045
0.1055
0.106
0.1065
0.1065
0.1075
0.1075
0.108
0.109
0.1095
0.1105
0.1105
0.111
0.1115
0.112
0.1135
0.1135
0.1145
0.115
0.115
0.116
0.116
0.1165
0.116
0.11750000000000001
0.117
0.11850000000000001
0.11900000000000001
0.11800000000000001
0.11850000000000001
0.11950000000000001
0.11950000000000001
0.1205
0.12
0.121
0.1215
0.122
0.1235
0.124
0.1235
0.124
0.1245
0.1255
0.1255
0.1265
0.127
0.128
0.1275
0.1275
0.1275
0.127
0.1265
0.1275
0.1285
0.126
0.127
0.1325
0.1395
0.14300000000000002
0.1525
0.213
0.36
0.6615
1.0445
1.3435000000000001
1.583
1.7555
1.8980000000000001
2.0115
2.0475
2.0475
2.0475
2.0475
2.0475
2.0475
2.0475
2.0475
2.0475
2.0475
2.0475
2.0475
2.0475
1.7345
1.4365
1.3145
1.2650000000000001
1.1285
0.923
0.7030000000000001
0.5005000000000001
0.35000000000000003
0.2525
0.19
0.1395
0.11850000000000001
0.1045
0.092
0.0855
0.0815
0.0745
0.0725
0.0725
0.07200000000000001
0.07
0.07
0.068
0.0685
0.07
0.07100000000000001
0.07150000000000001
0.069
0.07
0.0695
0.07150000000000001
0.073
0.0735
0.076
0.0755
0.076
0.078
0.08
0.0765
0.0785
0.0795
0.0795
0.0805
0.0825
0.08
0.082
0.082
0.083
0.0845
0.081
0.0835
0.082
0.084
0.0855
0.08650000000000001
0.08650000000000001
0.08750000000000001
0.089
0.0895
0.091
0.092
0.094
0.0945
0.097
0.0985
0.0995
0.0995
0.1005
0.101
0.10200000000000001
0.10300000000000001
0.10350000000000001
0.1045
0.10400000000000001
0.1045
0.1055
0.1055
0.107
0.1075
0.108
0.1085
0.109
0.1095
0.1095
0.111
0.111
0.1125
0.1115
0.1125
0.1135
0.114
0.1145
0.1145
0.1155
0.1155
0.117
0.11750000000000001
0.11800000000000001
0.11850000000000001
0.11850000000000001
0.11950000000000001
0.1205
0.12
0.12
0.121
0.121
0.122
0.123
0.1235
0.123
0.124
0.1245
0.1245
0.1265
0.127
0.126
0.127
0.1275
0.1275
0.1285
0.1285
0.1275
0.1285
0.1325
0.139
0.15
0.163
0.191
0.278
0.47500000000000003
0.8425
1.173
1.4275
1.6285
1.7895
1.9165
2.0175
2.0475
2.0475
2.0475
2.0475
2.0475
2.0475
2.0475
2.0475
2.0475
2.0475
2.0475
2.0475
2.0475
2.0475
1.713
1.4555
1.329
1.2355
1.114
0.9615
0.803
0.6605
0.5375
0.439
0.3605
0.2985
0.249
0.211
0.181
0.157
0.1395
0.123
0.111
0.10300000000000001
0.0935
0.08700000000000001
0.0825
0.0795
0.0755
0.073
0.07150000000000001
0.07150000000000001
0.07150000000000001
0.07150000000000001
0.07150000000000001
0.07100000000000001
0.07200000000000001
0.0725
0.0725
0.073
0.073
0.0735
0.0745
0.076
0.076
0.077
0.0765
0.078
0.078
0.079
0.0795
0.0795
0.08
0.081
0.082
0.0815
0.0825
0.0825
0.0825
0.083
0.0835
0.0845
0.0855
0.085
0.08600000000000001
0.0855
0.08700000000000001
0.08700000000000001
0.088
0.08750000000000001
0.0885
0.0885
0.09
0.0905
0.091
0.0915
0.091
0.091
0.092
0.093
0.0935
0.094
0.095
0.094
0.0955
0.094
0.097
0.0975
0.098
0.0985
0.0995
0.1
0.0985
0.101
0.1
0.1015
0.10300000000000001
0.10300000000000001
0.1015
0.10350000000000001
0.10350000000000001
0.10400000000000001
0.106
0.1045
0.105
0.1065
0.1065
0.107
0.108
0.108
0.1095
0.1095
0.111
0.112
0.1125
0.1135
0.114
0.113
0.1145
0.1155
0.1155
0.117
0.115
0.1165
0.11750000000000001
0.115
0.117
0.11750000000000001
0.1205
0.11900000000000001
0.11850000000000001
0.12
0.11900000000000001
0.11950000000000001
0.11900000000000001
0.12
0.1205
0.11950000000000001
0.1225
0.1225
0.1215
0.1255
0.1325
0.137
0.165
1.4385000000000001
2.04
2.0475
2.0475
2.0475
2.0475
2.0475
2.0475
2.0475
2.0475
2.0475
2.0475
2.0475
1.707
1.4075
1.3055
1.207
1.0605
0.886
0.7235
0.5785
0.47000000000000003
0.377
0.3075
0.2565
0.212
0.178
0.153
0.134
0.11850000000000001
0.1065
0.097
0.0905
0.0845
0.08
0.0755
0.0745
0.07150000000000001
0.07050000000000001
0.0695
0.068
0.0655
0.066
0.0685
0.067
0.0675
0.068
0.069
0.0695
0.07
0.07050000000000001
0.07050000000000001
0.07100000000000001
0.07200000000000001
0.073
0.073
0.0735
0.073
0.074
0.0745
0.0755
0.0765
0.077
0.077
0.0785
0.0795
0.0795
0.081
0.081
0.0805
0.082
0.0835
0.083
0.084
0.0845
0.085
0.08600000000000001
0.08600000000000001
0.08700000000000001
0.088
0.08750000000000001
0.0885
0.0885
0.0885
0.089
0.0895
0.0905
0.091
0.0915
0.092
0.0935
0.094
0.095
0.0945
0.095
0.0955
0.0955
0.096
0.0965
0.097
0.0975
0.0985
0.1
0.1
0.0995
0.1015
0.10200000000000001
0.10200000000000001
0.10250000000000001
0.10350000000000001
0.10400000000000001
0.10250000000000001
0.10350000000000001
0.105
0.1045
0.1055
0.1065
0.107
0.108
0.1085
0.1085
0.109
0.11
0.111
0.111
0.1115
0.112
0.1125
0.1145
0.1145
0.114
0.1135
0.1145
0.1155
0.1165
0.117
0.11750000000000001
0.11900000000000001
0.11950000000000001
0.12
0.12
0.12
0.1205
0.121
0.122
0.123
0.1225
0.1235
0.1235
0.1235
0.125
0.125
0.125
0.126
0.1325
0.1455
0.1555
0.1605
0.17250000000000001
0.2305
0.3995
0.771
1.1175
1.3835
1.5955000000000001
1.7790000000000001
1.9165
2.019
2.0475
2.0475
2.0475
2.0475
2.0475
2.0475
2.0475
2.0475
2.0475
2.0475
2.0475
2.0475
1.9155
1.5725
1.3385
1.2155
1.111
0.985
0.8395
0.6945
0.5650000000000001
0.4545
0.3695
0.303
0.2495
0.2085
0.176
0.151
0.1315
0.114
0.10200000000000001
0.0915
0.084
0.0775
0.0725
0.0675
0.0655
0.062
0.0625
0.061
0.059500000000000004
0.061
0.058
0.061
0.0575
0.059500000000000004
0.0565
0.0575
0.057
0.058
0.06
0.059500000000000004
0.059500000000000004
0.061
0.0605
0.062
0.0635
0.064
0.0655
0.0645
0.067
0.0665
0.0675
0.0675
0.0695
0.07100000000000001
0.07100000000000001
0.07150000000000001
0.07050000000000001
0.0725
0.0725
0.0725
0.0735
0.0765
0.0735
0.075
0.076
0.078
0.0775
0.08
0.0795
0.079
0.0805
0.079
0.083
0.08
0.081
0.084
0.0835
0.084
0.0855
0.084
0.0855
0.08650000000000001
0.085
0.08650000000000001
0.08650000000000001
0.088
0.089
0.0905
0.0885
0.0925
0.089
0.0905
0.0905
0.096
0.095
0.0975
0.096
0.0995
0.0995
0.099
0.098
0.10200000000000001
0.101
0.10400000000000001
0.1045
0.1065
0.1055
0.1065
0.1055
0.1075
0.1065
0.108
0.111
0.1085
0.112
0.113
0.1135
0.114
0.115
0.1155
0.1165
0.116
0.117
0.11750000000000001
0.11750000000000001
0.11750000000000001
0.1225
0.131
0.1405
0.1495
0.195
0.3415
0.6575
1.037
1.3245
1.5545
1.7345
1.8755
1.9875
2.0475
2.0475
2.0475
2.0475
2.0475
2.0475
2.0475
2.0475
2.0475
2.0475
2.0475
2.0475
2.0475
2.0475
1.7055
1.3885
1.2105000000000001
1.1045
1.0070000000000001
0.8815000000000001
0.7415
0.613
0.5015000000000001
0.404
0.3315
0.2735
0.228
0.1925
0.1645
0.14200000000000002
0.1235
0.11
0.0995
0.0915
0.085
0.0795
0.0765
0.0735
0.07100000000000001
0.0695
0.0685
0.0675
0.0675
0.066
0.066
0.0675
0.067
0.0665
0.0675
0.0685
0.069
0.068
0.0675
0.069
0.0685
0.07
0.0675
0.0685
0.07
0.07050000000000001
0.07100000000000001
0.0725
0.07150000000000001
0.0735
0.0725
0.0735
0.076
0.0755
0.077
0.0765
0.077
0.076
0.077
0.0785
0.0795
0.0805
0.0805
0.0815
0.0825
0.0835
0.0845
0.0845
0.08600000000000001
0.0855
0.08600000000000001
0.08650000000000001
0.088
0.088
0.088
0.0885
0.0895
0.0905
0.091
0.0915
0.092
0.093
0.093
0.0945
0.095
0.0955
0.0945
0.094
0.096
0.096
0.097
0.098
0.0975
0.0995
0.0995
0.1005
0.101
0.1015
0.10250000000000001
0.10250000000000001
0.10300000000000001
0.10350000000000001
0.1045
0.1045
0.105
0.1055
0.106
0.1065
0.1075
0.1075
0.1095
0.109
0.1105
0.111
0.1105
0.111
0.1115
0.1125
0.1125
0.113
0.114
0.1145
0.1145
0.1155
0.1155
0.1155
0.1155
0.116
0.1165
0.11750000000000001
0.11850000000000001
0.11800000000000001
0.11800000000000001
0.11800000000000001
0.11950000000000001
0.11950000000000001
0.12
0.12
0.121
0.11900000000000001
0.11850000000000001
0.11850000000000001
0.11750000000000001
0.1205
0.1245
0.128
0.132
0.154
0.28800000000000003
0.6255000000000001
1.0285
1.3175000000000001
1.5575
1.7345
1.8755
1.9855
2.0475
2.0475
2.0475
2.0475
2.0475
2.0475
2.0475
2.0475
2.0475
2.0475
2.0475
2.0475
2.0475
1.9335
1.5835000000000001
1.2995
1.1495
1.0315
0.907
0.7685
0.6315000000000001
0.505
0.41100000000000003
0.3305
0.269
0.223
0.188
0.1575
0.1355
0.11800000000000001
0.105
0.094
0.08600000000000001
0.078
0.0745
0.07100000000000001
0.0655
0.0635
0.0625
0.0655
0.0625
0.06
0.06
0.06
0.061
0.0625
0.063
0.0665
0.066
0.069
0.069
0.0675
0.068
0.07
0.07
0.0685
0.07050000000000001
0.07150000000000001
0.073
0.0775
0.076
0.079
0.0805
0.0775
0.0815
0.084
0.0825
0.0845
0.0835
0.08700000000000001
0.0885
0.0855
0.089
0.0885
0.0895
0.0905
0.0895
0.0925
0.094
0.0915
0.0955
0.096
0.094
0.0945
0.0955
0.097
0.0985
0.0985
0.0975
0.0975
0.098
0.0995
0.1005
0.10400000000000001
0.1045
0.1055
0.1055
0.105
0.107
0.108
0.109
0.1095
0.11
0.1105
0.1115
0.112
0.1115
0.113
0.114
0.1135
0.115
0.1155
0.1155
0.1165
0.1165
0.116
0.11800000000000001
0.11850000000000001
0.11800000000000001
0.11950000000000001
0.11950000000000001
0.11950000000000001
0.1205
0.1215
0.11850000000000001
0.122
0.122
0.123
0.1225
0.1235
0.1245
0.1245
0.124
0.1235
0.123
0.123
0.123
0.125
0.1295
0.1395
0.1515
0.1605
0.199
0.3195
0.5495
0.8925000000000001
1.225
1.4695
1.6615
1.815
1.9375
2.0375
2.0475
2.0475
2.0475
2.0475
2.0475
2.0475
2.0475
2.0475
2.0475
2.0475
2.0475
2.0475
2.0475
1.9515
1.6075
1.3635
1.2285
1.1185
0.9915
0.8495
0.709
0.582
0.47550000000000003
0.383
0.315
0.2615
0.219
0.185
0.1595
0.1395
0.123
0.111
0.1005
0.093
0.08750000000000001
0.083
0.079
0.076
0.0725
0.07100000000000001
0.07
0.069
0.0685
0.069
0.069
0.069
0.069
0.0695
0.07100000000000001
0.07
0.07
0.07150000000000001
0.07150000000000001
0.07050000000000001
0.07150000000000001
0.0725
0.0725
0.073
0.0735
0.0745
0.075
0.076
0.076
0.0765
0.0775
0.0785
0.079
0.079
0.0815
0.0795
0.0785
0.0785
0.0785
0.078
0.0795
0.083
0.084
0.0845
0.0835
0.0825
0.0805
0.0805
0.081
0.0825
0.084
0.0835
0.08650000000000001
0.0885
0.089
0.0895
0.09
0.0905
0.092
0.092
0.0925
0.0935
0.094
0.095
0.0955
0.096
0.097
0.0965
0.099
0.098
0.098
0.0985
0.0995
0.099
0.101
0.101
0.1
0.10200000000000001
0.1015
0.1015
0.10300000000000001
0.1045
0.10250000000000001
0.10350000000000001
0.105
0.10400000000000001
0.106
0.107
0.1065
0.1085
0.1075
0.107
0.107
0.108
0.1085
0.11
0.1105
0.1115
0.1135
0.113
0.1145
0.1145
0.115
0.116
0.1165
0.116
0.11750000000000001
0.11750000000000001
0.11950000000000001
0.11800000000000001
0.11950000000000001
0.11900000000000001
0.11800000000000001
0.11800000000000001
0.11750000000000001
0.11850000000000001
0.11950000000000001
0.1205
0.1205
0.11850000000000001
0.123
0.1255
0.134
0.2205
0.512
1.099
1.3775
1.595
1.7635
1.8965
2.0075
2.0475
2.0475
2.0475
2.0475
2.0475
2.0475
2.0475
1.423
1.1785
1.0075
0.8355
0.669
0.534
0.424
0.3215
0.2555
0.20400000000000001
0.1635
0.136
0.116
0.099
0.08600000000000001
0.078
0.07200000000000001
0.0675
0.0645
0.0645
0.062
0.0605
0.061
0.06
0.0605
0.061
0.061
0.061
0.062
0.0625
0.0625
0.0625
0.0645
0.0645
0.0645
0.0655
0.0665
0.0665
0.067
0.067
0.0675
0.068
0.068
0.07
0.07050000000000001
0.07050000000000001
0.07050000000000001
0.07150000000000001
0.07150000000000001
0.073
0.0725
0.07200000000000001
0.0725
0.073
0.0745
0.0745
0.0755
0.0765
0.077
0.078
0.0775
0.078
0.078
0.0765
0.0745
0.0765
0.0755
0.075
0.0765
0.077
0.078
0.0775
0.078
0.081
0.081
0.0825
0.085
0.08600000000000001
0.08750000000000001
0.0885
0.0885
0.089
0.0905
0.0915
0.0925
0.092
0.0925
0.0945
0.095
0.095
0.0955
0.0965
0.097
0.0975
0.0985
0.0985
0.099
0.1
0.1005
0.1005
0.10250000000000001
0.10200000000000001
0.10300000000000001
0.10300000000000001
0.10350000000000001
0.10400000000000001
0.10400000000000001
0.105
0.105
0.1055
0.106
0.1055
0.1075
0.108
0.1085
0.1095
0.1095
0.111
0.1115
0.1115
0.112
0.113
0.1135
0.114
0.1135
0.1145
0.116
0.116
0.116
0.117
0.11800000000000001
0.11800000000000001
0.11800000000000001
0.11950000000000001
0.11800000000000001
0.11750000000000001
0.11800000000000001
0.12
0.13
0.14350000000000002
0.1555
0.1615
0.17500000000000002
0.23900000000000002
0.4345
0.8015
1.139
1.4035
1.6115
1.7755
1.905
2.0075
2.0475
2.0475
2.0475
2.0475
2.0475
2.0475
2.0475
2.0475
2.0475
2.0475
2.0475
2.0475
2.0475
1.7975
1.433
1.215
1.1395
1.073
0.9635
0.807
0.6545
0.513
0.404
0.3215
0.2635
0.2185
0.1855
0.159
0.1385
0.1225
0.109
0.099
0.091
0.08600000000000001
0.079
0.0755
0.073
0.07050000000000001
0.069
0.068
0.067
0.066
0.0655
0.066
0.0655
0.0655
0.066
0.066
0.0675
0.0675
0.0685
0.0685
0.068
0.069
0.07
0.07050000000000001
0.07100000000000001
0.0695
0.0675
0.0665
0.068
0.068
0.07
0.07050000000000001
0.0695
0.069
0.07
0.07050000000000001
0.073
0.074
0.074
0.075
0.077
0.0775
0.0795
0.079
0.0805
0.081
0.0815
0.082
0.083
0.0835
0.0855
0.085
0.0855
0.08700000000000001
0.08650000000000001
0.08700000000000001
0.085
0.0855
0.0885
0.08750000000000001
0.089
0.088
0.0895
0.09
0.0915
0.093
0.0955
0.0945
0.094
0.0945
0.0965
0.0965
0.0975
0.0955
0.098
0.0985
0.0995
0.097
0.0985
0.0985
0.1005
0.0995
0.0985
0.1015
0.105
0.10400000000000001
0.10300000000000001
0.101
0.10350000000000001
0.1055
0.1085
0.1105
0.109
0.109
0.1105
0.112
0.113
0.112
0.1135
0.116
0.116
0.115
0.11850000000000001
0.11850000000000001
0.11800000000000001
0.11900000000000001
0.124
0.1325
0.14300000000000002
0.1565
0.1815
0.254
0.4365
0.7965
1.1395
1.4085
1.6175
1.7855
1.917
2.0215
2.0475
2.0475
2.0475
2.0235
2.0285
2.0475
2.0475
2.0475
2.0475
2.0475
2.0475
2.0475
2.0475
1.8235000000000001
1.4715
1.2105000000000001
1.0545
0.9355
0.8155
0.6925
0.5775
0.47550000000000003
0.3845
0.3175
0.265
0.225
0.191
0.1655
0.146
0.129
0.11850000000000001
0.107
0.1005
0.094
0.0895
0.0855
0.0835
0.082
0.081
0.078
0.0765
0.078
0.078
0.0775
0.078
0.0775
0.0775
0.0785
0.079
0.0795
0.08
0.079
0.08
0.0795
0.081
0.0805
0.082
0.0825
0.0835
0.084
0.0835
0.085
0.0855
0.0845
0.085
0.08600000000000001
0.08750000000000001
0.088
0.089
0.0895
0.0885
0.08650000000000001
0.08600000000000001
0.08600000000000001
0.08600000000000001
0.08600000000000001
0.0855
0.0855
0.08650000000000001
0.089
0.0895
0.0915
0.0925
0.0945
0.096
0.0955
0.097
0.098
0.0985
0.099
0.1
0.099
0.099
0.101
0.1015
0.10300000000000001
0.10300000000000001
0.10200000000000001
0.10300000000000001
0.10200000000000001
0.10200000000000001
0.10300000000000001
0.10350000000000001
0.106
0.106
0.1065
0.1065
0.108
0.109
0.1095
0.11
0.111
0.112
0.1115
0.113
0.114
0.1135
0.114
0.115
0.116
0.116
0.117
0.117
0.11850000000000001
0.11850000000000001
0.11950000000000001
0.12
0.12
0.12
0.121
0.121
0.1215
0.122
0.122
0.124
0.1245
0.1245
0.125
0.126
0.1265
0.1265
0.127
0.1275
0.128
0.129
0.1295
0.129
0.1295
0.13
0.1315
0.1315
0.132
0.1325
0.1325
0.1315
0.13
0.1295
0.13
0.132
0.134
0.1365
0.14200000000000002
0.20500000000000002
0.4035
0.7885
1.1295
1.3905
1.5975000000000001
1.7715
1.901
2.003
2.0475
2.0475
2.0475
2.0475
2.0475
2.0475
2.0475
2.0475
2.0475
2.0475
2.0475
2.0475
2.0475
1.8475000000000001
1.4895
1.2735
1.1565
1.0455
0.9175
0.776
0.643
0.525
0.4295
0.3525
0.28750000000000003
0.23850000000000002
0.201
0.17200000000000001
0.148
0.131
0.1155
0.1045
0.0965
0.0885
0.0855
0.081
0.079
0.078
0.0765
0.0735
0.0735
0.0735
0.0745
0.0735
0.075
0.076
0.0735
0.074
0.0725
0.076
0.075
0.075
0.0765
0.073
0.077
0.078
0.077
0.078
0.0785
0.079
0.0815
0.0815
0.084
0.0835
0.084
0.083
0.08600000000000001
0.0855
0.0905
0.0925
0.0925
0.091
0.0905
0.093
0.092
0.0955
0.0945
0.096
0.0985
0.099
0.099
0.0995
0.1
0.0995
0.10250000000000001
0.0995
0.099
0.1
0.1045
0.101
0.10400000000000001
0.10350000000000001
0.1065
0.107
0.107
0.1095
0.1085
0.107
0.1075
0.11
0.109
0.109
0.111
0.1115
0.1135
0.115
0.116
0.1165
0.11900000000000001
0.11900000000000001
0.12
0.1205
0.1205
0.1225
0.1215
0.1225
0.123
0.124
0.124
0.1255
0.125
0.1255
0.126
0.127
0.127
0.128
0.1285
0.129
0.1295
0.1295
0.1305
0.1315
0.1315
0.1315
0.131
0.1305
0.131
0.1315
0.1315
0.1355
0.1645
0.199
0.322
0.587
0.9525
1.2575
1.4915
1.679
1.829
1.945
2.0395
2.0475
2.0475
2.0475
2.0475
2.0475
2.0475
2.0475
2.0475
2.0475
2.0475
2.0475
2.0475
2.0475
1.967
1.6285
1.3765
1.2655
1.1795
1.0635000000000001
0.9105
0.763
0.63
0.5185
0.425
0.35050000000000003
0.29
0.245
0.2095
0.181
0.1575
0.1395
0.125
0.115
0.10400000000000001
0.0985
0.0935
0.089
0.08600000000000001
0.083
0.0805
0.0795
0.078
0.077
0.077
0.0765
0.077
0.0775
0.0775
0.079
0.077
0.078
0.078
0.0775
0.0785
0.08
0.0805
0.0805
0.081
0.0815
0.083
0.083
0.0825
0.084
0.084
0.085
0.0855
0.08600000000000001
0.08650000000000001
0.0855
0.089
0.08700000000000001
0.08750000000000001
0.08750000000000001
0.08650000000000001
0.0855
0.08600000000000001
0.088
0.08750000000000001
0.089
0.088
0.092
0.091
0.0915
0.091
0.0915
0.0915
0.0935
0.094
0.0945
0.0965
0.0985
0.099
0.0995
0.1005
0.10200000000000001
0.10250000000000001
0.10400000000000001
0.10250000000000001
0.1045
0.10300000000000001
0.10350000000000001
0.10350000000000001
0.1045
0.106
0.1055
0.1055
0.1055
0.1065
0.108
0.108
0.107
0.1085
0.1085
0.1075
0.1095
0.1085
0.1095
0.111
0.1105
0.112
0.1125
0.1125
0.113
0.115
0.1155
0.1145
0.1155
0.1165
0.11750000000000001
0.11850000000000001
0.11850000000000001
0.11950000000000001
0.12
0.117
0.1215
0.1235
0.11950000000000001
0.122
0.122
0.1215
0.1215
0.1225
0.123
0.1245
0.1245
0.127
0.1255
0.1265
0.1275
0.1265
0.128
0.126
0.128
0.1305
0.1275
0.129
0.1275
0.1285
0.1275
0.1315
0.14
0.148
0.1525
0.1855
0.3125
0.5935
0.9755
1.293
1.5245
1.7205000000000001
1.901
2.0215
2.0475
2.0475
2.0475
2.0475
2.0475
2.0475
2.0475
2.0475
2.0475
2.0475
2.0475
1.7645
1.422
1.3765
1.3285
1.169
0.965
0.7835
0.3805
0.1545
0.11750000000000001
0.0975
0.08650000000000001
0.0775
0.0735
0.07150000000000001
0.07050000000000001
0.07
0.0725
0.069
0.07100000000000001
0.0685
0.0685
0.0695
0.0695
0.0665
0.0685
0.07050000000000001
0.0695
0.07100000000000001
0.0735
0.074
0.0745
0.073
0.0745
0.076
0.0775
0.08
0.08
0.0815
0.082
0.08
0.084
0.0845
0.0855
0.08600000000000001
0.0855
0.08650000000000001
0.08700000000000001
0.08750000000000001
0.088
0.088
0.089
0.0895
0.0895
0.09
0.092
0.092
0.093
0.0935
0.0935
0.0935
0.0945
0.096
0.0955
0.097
0.098
0.0975
0.099
0.0995
0.097
0.1005
0.1
0.1005
0.1015
0.101
0.10200000000000001
0.10350000000000001
0.10300000000000001
0.10400000000000001
0.10400000000000001
0.105
0.105
0.1055
0.1065
0.107
0.108
0.107
0.1075
0.107
0.109
0.109
0.1085
0.1095
0.11
0.11
0.1115
0.1125
0.113
0.114
0.114
0.1155
0.116
0.11750000000000001
0.117
0.11900000000000001
0.11950000000000001
0.11850000000000001
0.11950000000000001
0.12
0.12
0.12
0.1215
0.122
0.1215
0.123
0.122
0.1235
0.1245
0.1245
0.126
0.126
0.1265
0.1275
0.128
0.127
0.129
0.128
0.13
0.1285
0.1295
0.129
0.131
0.1315
0.1375
0.1515
0.1635
0.176
0.2145
0.3
0.47400000000000003
0.8365
1.1615
1.4135
1.6165
1.7755
1.9015
2.0035
2.0475
2.0475
2.0475
2.0355
2.0415
2.0475
2.0475
2.0475
2.0475
2.0475
2.0475
2.0475
2.0475
2.019
1.6855
1.399
1.2695
1.21
1.1245
0.999
0.8545
0.7115
0.5855
0.481
0.3975
0.3295
0.277
0.2335
0.2005
0.17300000000000001
0.1475
0.131
0.115
0.106
0.0965
0.092
0.0845
0.0825
0.081
0.078
0.076
0.0755
0.074
0.0745
0.0735
0.0745
0.0755
0.0765
0.078
0.078
0.079
0.0795
0.0805
0.0805
0.0805
0.0815
0.083
0.083
0.0825
0.082
0.0835
0.0845
0.0855
0.08600000000000001
0.0845
0.08700000000000001
0.08700000000000001
0.085
0.084
0.0845
0.08600000000000001
0.08650000000000001
0.088
0.088
0.089
0.0895
0.091
0.09
0.091
0.0925
0.092
0.092
0.0935
0.0955
0.0935
0.0955
0.095
0.097
0.097
0.097
0.0975
0.0985
0.099
0.0995
0.1
0.1
0.101
0.101
0.10300000000000001
0.10250000000000001
0.10300000000000001
0.10350000000000001
0.10350000000000001
0.105
0.10400000000000001
0.1045
0.1055
0.106
0.1075
0.1075
0.109
0.1085
0.1095
0.1105
0.111
0.1115
0.111
0.114
0.114
0.113
0.1135
0.1155
0.1145
0.1135
0.114
0.1145
0.1145
0.1145
0.114
0.114
0.1145
0.115
0.115
0.1135
0.115
0.1165
0.11800000000000001
0.1205
0.1205
0.1225
0.123
0.123
0.124
0.126
0.1255
0.1245
0.1265
0.1265
0.128
0.1275
0.126
0.1295
0.1285
0.1285
0.1295
0.128
0.13
0.1355
0.151
0.1705
0.185
0.2155
0.3195
0.5640000000000001
0.9755
1.2770000000000001
1.5275
1.7145000000000001
1.8635
1.9795
2.0475
2.0475
2.0475
1.9985
2.0255
2.0475
2.0475
2.0475
2.0475
2.0475
2.0475
2.0475
2.0475
1.7245000000000001
1.3645
1.229
1.1645
1.0595
0.9055
0.7455
0.6005
0.47650000000000003
0.3565
0.281
0.2255
0.1875
0.1535
0.134
0.11950000000000001
0.10400000000000001
0.096
0.0905
0.08650000000000001
0.084
0.083
0.0815
0.0815
0.0805
0.0815
0.082
0.08
0.0825
0.0845
0.081
0.0815
0.082
0.08
0.083
0.085
0.08650000000000001
0.08650000000000001
0.088
0.08700000000000001
0.09
0.091
0.09
0.0905
0.091
0.092
0.0905
0.0945
0.094
0.0965
0.0975
0.0975
0.099
0.1005
0.1015
0.10250000000000001
0.10300000000000001
0.10400000000000001
0.1045
0.1055
0.106
0.107
0.1065
0.108
0.1085
0.109
0.1095
0.1105
0.1105
0.112
0.1115
0.112
0.1135
0.114
0.114
0.1145
0.115
0.1155
0.117
0.117
0.11750000000000001
0.11950000000000001
0.11800000000000001
0.11750000000000001
0.11750000000000001
0.11800000000000001
0.11850000000000001
0.11850000000000001
0.11950000000000001
0.122
0.122
0.1225
0.1225
0.1215
0.124
0.1245
0.1245
0.124
0.125
0.126
0.1255
0.1265
0.1275
0.1285
0.129
0.129
0.1305
0.1315
0.132
0.133
0.1345
0.133
0.134
0.1345
0.134
0.1355
0.136
0.1365
0.137
0.1375
0.137
0.138
0.1375
0.137
0.1375
0.1375
0.14
0.153
0.1695
0.18
0.1925
0.2735
0.5115000000000001
0.9315
1.2465
1.485
1.6755
1.827
1.9465000000000001
2.0475
2.0475
2.0475
2.0475
2.0475
2.0475
2.0475
2.0475
2.0475
2.0475
2.0475
2.0475
2.0475
2.0475
1.7755
1.4575
1.2375
1.086
0.9465
0.8095
0.6805
0.5645
0.4645
0.3835
0.3185
0.268
0.229
0.1975
0.17350000000000002
0.153
0.1375
0.1265
0.1155
0.109
0.10250000000000001
0.0985
0.0945
0.093
0.0905
0.0895
0.0885
0.08700000000000001
0.08650000000000001
0.088
0.08600000000000001
0.08650000000000001
0.08650000000000001
0.08650000000000001
0.08700000000000001
0.08700000000000001
0.08750000000000001
0.089
0.0885
0.0885
0.0885
0.0895
0.0905
0.091
0.0915
0.092
0.0925
0.093
0.094
0.0945
0.0945
0.095
0.0965
0.097
0.097
0.0985
0.098
0.098
0.0985
0.1
0.098
0.1005
0.1
0.1015
0.10250000000000001
0.10200000000000001
0.10300000000000001
0.10350000000000001
0.10250000000000001
0.10400000000000001
0.10400000000000001
0.10350000000000001
0.1045
0.10350000000000001
0.106
0.1065
0.1065
0.106
0.1075
0.108
0.1095
0.11
0.1105
0.111
0.1115
0.1125
0.1135
0.114
0.115
0.1145
0.1125
0.113
0.1135
0.115
0.115
0.1165
0.11850000000000001
0.11950000000000001
0.11900000000000001
0.121
0.12
0.1215
0.1215
0.1215
0.1225
0.124
0.1235
0.125
0.1245
0.1255
0.127
0.129
0.125
0.128
0.127
0.1285
0.1275
0.1265
0.126
0.126
0.126
0.1245
0.127
0.1275
0.1295
0.1285
0.1295
0.13
0.13
0.131
0.1305
0.1315
0.1325
0.135
0.1355
0.1365
0.1385
0.1385
0.1395
0.1385
0.137
0.139
0.14350000000000002
0.154
0.1665
0.19
0.2715
0.47450000000000003
0.857
1.1945000000000001
1.4685000000000001
1.6755
1.8295000000000001
1.9555
2.0475
2.0475
2.0475
2.0475
2.0475
2.0475
2.0475
2.0475
2.0475
2.0475
2.0475
2.0475
2.0475
2.0475
1.857
1.5375
1.3825
1.2965
1.1815
1.0265
0.85
0.6875
0.5515
0.448
0.367
0.3015
0.2515
0.2135
0.1805
0.1585
0.139
0.1245
0.1135
0.10350000000000001
0.099
0.0905
0.088
0.08650000000000001
0.0805
0.0815
0.078
0.078
0.0795
0.079
0.0765
0.075
0.074
0.075
0.075
0.077
0.0775
0.0795
0.0795
0.0795
0.081
0.0815
0.0825
0.0855
0.084
0.08600000000000001
0.0835
0.0845
0.08650000000000001
0.0895
0.0895
0.0905
0.09
0.0905
0.0905
0.0905
0.0945
0.096
0.096
0.0965
0.097
0.0995
0.099
0.0985
0.098
0.0985
0.1005
0.1015
0.10200000000000001
0.105
0.105
0.106
0.107
0.1075
0.109
0.11
0.111
0.1115
0.1125
0.114
0.114
0.114
0.1155
0.1165
0.117
0.11750000000000001
0.11750000000000001
0.11850000000000001
0.11950000000000001
0.11900000000000001
0.11950000000000001
0.12
0.1205
0.121
0.1215
0.122
0.1225
0.1225
0.124
0.1245
0.125
0.126
0.126
0.126
0.1275
0.128
0.1275
0.1285
0.129
0.129
0.129
0.128
0.131
0.1295
0.13
0.131
0.1325
0.1335
0.134
0.133
0.1335
0.1355
0.135
0.1345
0.134
0.135
0.1365
0.139
0.14150000000000001
0.148
0.176
0.2745
0.5235
0.9225
1.2375
1.4795
1.6715
1.8235000000000001
1.9505000000000001
2.0475
2.0475
2.0475
1.9715
1.9035
1.9725000000000001
2.0475
2.0475
2.0475
2.0475
2.0475
2.0475
2.0475
1.7715
1.4435
1.196
1.101
1.0495
0.9595
0.835
0.6990000000000001
0.5725
0.47150000000000003
0.386
0.322
0.2725
0.233
0.2015
0.1765
0.1585
0.14350000000000002
0.131
0.122
0.1145
0.1095
0.1045
0.101
0.099
0.097
0.0965
0.0955
0.0935
0.093
0.0935
0.094
0.093
0.0935
0.094
0.0945
0.0945
0.094
0.095
0.096
0.096
0.096
0.0975
0.0975
0.098
0.098
0.0985
0.1
0.099
0.0995
0.0995
0.1005
0.101
0.1015
0.10300000000000001
0.10350000000000001
0.10300000000000001
0.10400000000000001
0.10350000000000001
0.105
0.1045
0.1055
0.106
0.1075
0.108
0.108
0.11
0.11
0.11
0.111
0.1115
0.1115
0.1125
0.1135
0.114
0.1145
0.115
0.115
0.1165
0.117
0.117
0.11850000000000001
0.11900000000000001
0.11800000000000001
0.11950000000000001
0.11950000000000001
0.11950000000000001
0.12
0.11900000000000001
0.12
0.1205
0.1205
0.1215
0.1215
0.122
0.123
0.123
0.1235
0.1245
0.1255
0.126
0.1265
0.127
0.127
0.1265
0.1285
0.1285
0.1295
0.1295
0.1295
0.129
0.1295
0.1295
0.13
0.132
0.133
0.1335
0.1335
0.134
0.1345
0.135
0.1355
0.136
0.1365
0.1365
0.1375
0.136
0.1375
0.139
0.138
0.1385
0.14
0.1395
0.14150000000000001
0.1385
0.14
0.1395
0.14200000000000002
0.14200000000000002
0.14100000000000001
0.14300000000000002
0.14250000000000002
0.148
0.159
0.1695
0.1805
0.2165
0.3175
0.5145
0.8555
1.1885000000000001
1.4815
1.6995
1.8735
1.995
2.0475
2.0475
2.0475
2.0475
2.0475
2.0475
2.0475
2.0475
2.0475
2.0475
2.0475
1.8635
1.497
1.333
1.2645
1.129
0.9470000000000001
0.7545000000000001
0.592
0.2525
0.135
0.1205
0.10350000000000001
0.0985
0.0915
0.0885
0.088
0.08700000000000001
0.08700000000000001
0.08700000000000001
0.0855
0.0845
0.081
0.0845
0.0825
0.0835
0.0845
0.0845
0.0855
0.08750000000000001
0.0885
0.0885
0.08600000000000001
0.091
0.089
0.089
0.092
0.0905
0.091
0.093
0.091
0.0925
0.091
0.0915
0.0945
0.095
0.0955
0.098
0.099
0.1
0.1015
0.1015
0.10300000000000001
0.10400000000000001
0.1055
0.1055
0.105
0.1055
0.1065
0.1085
0.1085
0.1085
0.109
0.11
0.111
0.1115
0.1115
0.1125
0.113
0.1135
0.1145
0.1145
0.115
0.1155
0.116
0.1165
0.1165
0.11750000000000001
0.11800000000000001
0.11800000000000001
0.11900000000000001
0.11900000000000001
0.12
0.1205
0.1205
0.121
0.1215
0.11950000000000001
0.1225
0.123
0.1225
0.125
0.124
0.1245
0.124
0.127
0.127
0.1275
0.1285
0.129
0.1295
0.1295
0.131
0.131
0.1315
0.132
0.1325
0.133
0.134
0.1345
0.1335
0.134
0.1355
0.136
0.1365
0.137
0.137
0.138
0.1385
0.138
0.1395
0.14100000000000001
0.14100000000000001
0.14100000000000001
0.1405
0.1395
0.139
0.1395
0.137
0.1385
0.1395
0.147
0.1555
0.164
0.1845
0.23850000000000002
0.3845
0.6775
1.0505
1.335
1.5555
1.7315
1.8715
1.9835
2.0475
2.0475
2.0065
1.8865
1.8365
1.9305
2.0425
2.0475
2.0475
2.0475
2.0475
2.0475
2.0475
1.8285
1.4975
1.2745
1.1995
1.1435
1.039
0.8995
0.7535000000000001
0.617
0.5075000000000001
0.41550000000000004
0.343
0.2895
0.2475
0.2145
0.189
0.1685
0.1525
0.1395
0.13
0.121
0.1145
0.1095
0.106
0.10300000000000001
0.1005
0.0985
0.098
0.0975
0.0965
0.0975
0.097
0.097
0.0975
0.098
0.0975
0.099
0.0985
0.0985
0.099
0.1
0.099
0.1005
0.101
0.101
0.1015
0.1015
0.10250000000000001
0.10400000000000001
0.10400000000000001
0.1045
0.105
0.1045
0.105
0.1075
0.1065
0.107
0.1055
0.1055
0.1055
0.1055
0.107
0.109
0.109
0.1095
0.1105
0.111
0.1105
0.1125
0.114
0.1125
0.114
0.114
0.1135
0.1155
0.11750000000000001
0.1165
0.117
0.11750000000000001
0.11850000000000001
0.117
0.11850000000000001
0.11900000000000001
0.1205
0.12
0.1205
0.12
0.11900000000000001
0.1215
0.11950000000000001
0.11950000000000001
0.1205
0.123
0.1235
0.1235
0.1255
0.127
0.128
0.1275
0.1275
0.1325
0.1305
0.1315
0.132
0.133
0.13
0.1295
0.1335
0.1325
0.134
0.133
0.1325
0.135
0.1355
0.1375
0.1345
0.1405
0.14
0.1385
0.1395
0.14200000000000002
0.14300000000000002
0.14150000000000001
0.14400000000000002
0.14300000000000002
0.14300000000000002
0.14350000000000002
0.14350000000000002
0.1405
0.14200000000000002
0.147
0.154
0.193
0.34450000000000003
0.892
1.3105
1.587
1.7790000000000001
1.946
2.0475
2.0475
2.0475
1.925
1.9495
2.0475
2.0475
2.0475
2.0475
2.0475
2.0475
2.005
1.685
1.375
1.1445
1.0130000000000001
0.9085
0.801
0.6895
0.58
0.484
0.404
0.34
0.29
0.2495
0.218
0.1935
0.17300000000000001
0.158
0.1455
0.136
0.129
0.1235
0.11850000000000001
0.116
0.113
0.11
0.109
0.108
0.1075
0.107
0.107
0.1075
0.1075
0.108
0.1085
0.109
0.109
0.1095
0.109
0.1105
0.1105
0.111
0.1115
0.1115
0.112
0.1125
0.1125
0.1135
0.1135
0.1145
0.115
0.1155
0.116
0.1165
0.1165
0.11750000000000001
0.11850000000000001
0.11800000000000001
0.11800000000000001
0.11900000000000001
0.11900000000000001
0.11950000000000001
0.11950000000000001
0.1205
0.121
0.122
0.122
0.1235
0.123
0.1235
0.1245
0.126
0.126
0.128
0.1275
0.128
0.1285
0.129
0.1295
0.13
0.1305
0.131
0.1315
0.132
0.133
0.1325
0.134
0.1345
0.1345
0.1345
0.135
0.136
0.1375
0.1375
0.1375
0.1375
0.1375
0.139
0.1395
0.14
0.1405
0.14150000000000001
0.14150000000000001
0.14200000000000002
0.14300000000000002
0.14250000000000002
0.14350000000000002
0.14400000000000002
0.14400000000000002
0.14350000000000002
0.145
0.145
0.145
0.146
0.147
0.147
0.148
0.1475
0.148
0.149
0.1495
0.149
0.1505
0.1515
0.1525
0.1525
0.1535
0.153
0.155
0.1535
0.152
0.1545
0.1575
0.1535
0.151
0.1555
0.156
0.155
0.154
0.1545
0.154
0.155
0.1565
0.1595
0.165
0.17250000000000001
0.179
0.1925
0.244
0.374
0.6495
1.0170000000000001
1.327
1.5575
1.7425
1.8815
1.987
2.0475
2.0375
1.9295
1.8295000000000001
1.855
1.9775
2.0475
2.0475
2.0475
2.0475
2.0475
2.0475
1.895
1.5045
1.2285
1.093
1.0315
0.9785
0.8835000000000001
0.7595000000000001
0.6355000000000001
0.5235
0.433
0.364
0.31
0.2665
0.233
0.20650000000000002
0.185
0.1695
0.1575
0.1475
0.1375
0.133
0.129
0.124
0.12
0.11950000000000001
0.117
0.11900000000000001
0.117
0.1165
0.114
0.114
0.1135
0.1135
0.113
0.1125
0.114
0.1135
0.1125
0.1135
0.111
0.1125
0.113
0.1155
0.1155
0.11750000000000001
0.11850000000000001
0.12
0.12
0.122
0.122
0.123
0.123
0.125
0.1255
0.1265
0.1235
0.125
0.129
0.128
0.1285
0.1275
0.13
0.128
0.1275
0.131
0.1285
0.1335
0.136
0.1365
0.135
0.1345
0.1355
0.1365
0.1365
0.138
0.1395
0.14
0.139
0.1405
0.14150000000000001
0.14250000000000002
0.14350000000000002
0.145
0.14350000000000002
0.148
0.1475
0.1475
0.148
0.1495
0.1495
0.1515
0.151
0.15
0.152
0.1525
0.154
0.154
0.1555
0.1565
0.157
0.1585
0.159
0.1595
0.16
0.1605
0.1615
0.162
0.1635
0.164
0.164
0.1655
0.165
0.166
0.1665
0.1675
0.167
0.1675
0.168
0.1685
0.169
0.1685
0.169
0.1685
0.1685
0.1675
0.167
0.1665
0.167
0.17
0.17350000000000002
0.1805
0.20350000000000001
0.2995
0.534
0.913
1.2255
1.4715
1.6675
1.8205
1.9425000000000001
2.0435
2.0475
1.9445000000000001
1.8395000000000001
1.879
2.0060000000000002
2.0475
2.0475
2.0475
2.0475
2.0475
2.0475
1.8875
1.5435
1.28
1.1505
1.073
0.9855
0.8705
0.7445
0.6255000000000001
0.5185
0.4345
0.3685
0.3165
0.2755
0.243
0.218
0.1975
0.1825
0.1695
0.161
0.1525
0.146
0.14200000000000002
0.1385
0.1355
0.1335
0.1315
0.1305
0.13
0.1295
0.1295
0.1285
0.1285
0.129
0.129
0.129
0.1305
0.13
0.1305
0.13
0.132
0.132
0.133
0.1335
0.1325
0.1335
0.1345
0.1345
0.1345
0.135
0.1355
0.1365
0.1365
0.137
0.137
0.138
0.1385
0.138
0.139
0.1395
0.139
0.1395
0.14100000000000001
0.14100000000000001
0.14250000000000002
0.14300000000000002
0.14350000000000002
0.14350000000000002
0.1445
0.14400000000000002
0.1445
0.1445
0.1455
0.146
0.1455
0.1465
0.1475
0.1485
0.1485
0.1495
0.1505
0.151
0.1515
0.153
0.1535
0.153
0.153
0.154
0.154
0.1545
0.1555
0.156
0.156
0.1575
0.158
0.158
0.1585
0.159
0.159
0.1595
0.16
0.161
0.16
0.1615
0.162
0.1625
0.1625
0.1625
0.163
0.163
0.1635
0.165
0.165
0.1645
0.1665
0.1665
0.1665
0.1655
0.1655
0.166
0.167
0.1675
0.1675
0.1675
0.1685
0.169
0.1695
0.17
0.1695
0.1705
0.1715
0.17200000000000001
0.17200000000000001
0.17200000000000001
0.17250000000000001
0.1705
0.17
0.1715
0.1715
0.1705
0.1705
0.1695
0.1715
0.17300000000000001
0.1765
0.184
0.1915
0.1955
0.2085
0.2335
0.36
0.705
1.0615
1.3455
1.5655000000000001
1.7505
1.8855
1.9925
2.0475
2.0375
1.935
1.8635
1.9165
2.0275
2.0475
2.0475
2.0475
2.0475
2.0475
1.8725
1.425
1.117
1.0225
0.9345
0.795
0.646
0.523
0.4255
0.3555
0.2965
0.25
0.2215
0.2005
0.1855
0.17350000000000002
0.163
0.156
0.149
0.14200000000000002
0.138
0.1325
0.1355
0.1315
0.1285
0.133
0.134
0.1325
0.1355
0.1355
0.1345
0.135
0.1375
0.139
0.139
0.136
0.1375
0.1385
0.1385
0.14150000000000001
0.14350000000000002
0.1455
0.1445
0.14350000000000002
0.14300000000000002
0.14350000000000002
0.14200000000000002
0.14300000000000002
0.146
0.1465
0.14400000000000002
0.1475
0.148
0.1495
0.151
0.1505
0.1505
0.15
0.151
0.1525
0.1535
0.1555
0.157
0.1585
0.1595
0.1615
0.1615
0.1615
0.162
0.1635
0.1655
0.1645
0.165
0.1655
0.166
0.1665
0.1675
0.167
0.168
0.169
0.169
0.17
0.1695
0.1695
0.1705
0.1705
0.17300000000000001
0.17250000000000001
0.17200000000000001
0.17300000000000001
0.17300000000000001
0.1715
0.17300000000000001
0.17250000000000001
0.17450000000000002
0.17500000000000002
0.17550000000000002
0.17550000000000002
0.177
0.177
0.178
0.178
0.1785
0.1795
0.1805
0.181
0.181
0.1815
0.1815
0.1825
0.1835
0.1845
0.1835
0.184
0.1865
0.186
0.1855
0.184
0.1835
0.1835
0.183
0.1835
0.184
0.1865
0.194
0.2015
0.217
0.2535
0.34550000000000003
0.5825
0.9625
1.2615
1.4985
1.682
1.8295000000000001
1.9535
2.0375
1.9935
1.8675
1.7275
1.6245
1.6935
1.8575
1.9915
2.0475
2.0475
2.0475
1.8835
1.5725
1.2685
1.0585
0.9865
0.9155
0.8205
0.7045
0.598
0.5045000000000001
0.4245
0.365
0.318
0.281
0.2525
0.23
0.2125
0.1985
0.187
0.1785
0.17200000000000001
0.1665
0.1625
0.1595
0.157
0.1545
0.1535
0.1535
0.152
0.1515
0.152
0.1525
0.1515
0.1515
0.1525
0.15
0.1525
0.1525
0.153
0.153
0.1535
0.154
0.1545
0.1555
0.1565
0.156
0.156
0.1575
0.157
0.1575
0.158
0.1585
0.159
0.1595
0.16
0.1615
0.1615
0.1605
0.161
0.1595
0.159
0.1585
0.1595
0.1605
0.162
0.1625
0.1635
0.1645
0.1655
0.1655
0.1665
0.1665
0.1675
0.1695
0.168
0.169
0.17
0.169
0.17
0.17
0.1705
0.1705
0.17200000000000001
0.1705
0.1705
0.1715
0.17350000000000002
0.17250000000000001
0.1705
0.1705
0.17200000000000001
0.17350000000000002
0.17550000000000002
0.17500000000000002
0.17450000000000002
0.17550000000000002
0.1765
0.1775
0.178
0.1775
0.178
0.176
0.1775
0.1765
0.178
0.179
0.18
0.1815
0.182
0.1835
0.1845
0.185
0.1835
0.1825
0.1825
0.1815
0.1835
0.1825
0.1845
0.189
0.189
0.188
0.186
0.1895
0.19
0.1905
0.189
0.1895
0.188
0.1885
0.191
0.1935
0.191
0.194
0.1905
0.19
0.194
1.1435
1.8375000000000001
1.9895
2.0475
2.0475
1.8820000000000001
1.7225000000000001
1.8625
2.001
2.0475
2.0475
2.0475
2.0475
1.8155000000000001
1.473
1.2265
1.0965
1.0315
0.9575
0.8515
0.7315
0.6155
0.5185
0.4385
0.373
0.322
0.28500000000000003
0.2545
0.232
0.2155
0.202
0.1905
0.1835
0.177
0.1715
0.169
0.1655
0.1625
0.16
0.16
0.1595
0.159
0.158
0.158
0.158
0.159
0.1585
0.159
0.1585
0.159
0.1595
0.1595
0.16
0.161
0.1605
0.1605
0.161
0.162
0.1615
0.163
0.163
0.164
0.164
0.1645
0.165
0.1655
0.166
0.1665
0.168
0.1675
0.168
0.167
0.1665
0.1675
0.1675
0.1675
0.1685
0.17
0.17
0.171
0.17200000000000001
0.17300000000000001
0.17300000000000001
0.17350000000000002
0.17350000000000002
0.17500000000000002
0.17550000000000002
0.17450000000000002
0.17400000000000002
0.17550000000000002
0.1765
0.1765
0.176
0.1765
0.1775
0.1775
0.18
0.1795
0.181
0.181
0.181
0.1815
0.183
0.1825
0.183
0.1835
0.1835
0.1845
0.185
0.185
0.1865
0.187
0.1875
0.188
0.188
0.1875
0.1885
0.1885
0.1885
0.1895
0.1905
0.1915
0.1915
0.191
0.191
0.1925
0.1935
0.1935
0.1935
0.194
0.1955
0.1955
0.1955
0.1955
0.1965
0.1965
0.198
0.198
0.198
0.199
0.1985
0.1985
0.199
0.1995
0.1995
0.2
0.2005
0.2015
0.2015
0.2015
0.203
0.2025
0.202
0.20400000000000001
0.2025
0.20350000000000001
0.20800000000000002
0.212
0.2175
0.2235
0.249
0.34700000000000003
0.6555
1.067
1.365
1.6005
1.7810000000000001
1.9155
2.0175
2.0475
2.0475
1.9735
1.9175
1.9835
2.0475
2.0475
2.0475
2.0475
2.0475
2.0475
2.0405
1.7205000000000001
1.3945
1.1805
1.071
0.9815
0.8805000000000001
0.7625000000000001
0.6475
0.55
0.4675
0.402
0.34850000000000003
0.3035
0.269
0.2425
0.222
0.20700000000000002
0.193
0.1815
0.17550000000000002
0.1705
0.166
0.163
0.1605
0.16
0.159
0.158
0.158
0.1575
0.1565
0.1575
0.1575
0.157
0.1575
0.1575
0.1575
0.157
0.1585
0.158
0.1585
0.1605
0.159
0.16
0.1605
0.1605
0.163
0.162
0.1615
0.1625
0.1625
0.164
0.1645
0.1645
0.166
0.167
0.1685
0.167
0.167
0.1645
0.164
0.1655
0.164
0.1655
0.1675
0.1685
0.1705
0.17
0.17200000000000001
0.1715
0.1705
0.17200000000000001
0.17450000000000002
0.17350000000000002
0.17300000000000001
0.17350000000000002
0.17300000000000001
0.17500000000000002
0.17450000000000002
0.177
0.1765
0.1775
0.1795
0.1795
0.1785
0.181
0.1805
0.183
0.186
0.184
0.1865
0.183
0.1855
0.185
0.1885
0.1855
0.1885
0.1905
0.1905
0.1915
0.192
0.194
0.1935
0.1935
0.1915
0.1915
0.194
0.1935
0.1955
0.1955
0.196
0.1965
0.1975
0.1995
0.2
0.2015
0.201
0.202
0.2025
0.20350000000000001
0.20450000000000002
0.20400000000000001
0.202
0.203
0.2005
0.2005
0.2
0.201
0.2025
0.20550000000000002
0.2405
0.3755
0.6575
1.0315
1.325
1.5515
1.7305
1.8705
1.9825000000000002
2.0475
2.0115
1.8915
1.7695
1.7535
1.8825
2.005
2.0475
2.0475
2.0475
2.0475
2.0415
1.7455
1.4375
1.1755
1.0075
0.9355
0.868
0.7785
0.6785
0.5825
0.497
0.427
0.3715
0.328
0.293
0.266
0.244
0.227
0.2165
0.20350000000000001
0.194
0.1875
0.183
0.177
0.1765
0.17250000000000001
0.1695
0.1695
0.169
0.1685
0.1685
0.169
0.168
0.1685
0.1695
0.1695
0.1695
0.1695
0.1705
0.171
0.1715
0.17250000000000001
0.17200000000000001
0.17300000000000001
0.17300000000000001
0.17300000000000001
0.17250000000000001
0.17400000000000002
0.17450000000000002
0.17350000000000002
0.17500000000000002
0.17500000000000002
0.17550000000000002
0.17550000000000002
0.17550000000000002
0.1775
0.1765
0.178
0.178
0.177
0.1765
0.17500000000000002
0.17500000000000002
0.176
0.1775
0.1785
0.1795
0.1805
0.1815
0.1825
0.1835
0.185
0.186
0.186
0.186
0.187
0.1865
0.188
0.1885
0.1895
0.1905
0.19
0.1895
0.189
0.188
0.188
0.188
0.1865
0.1885
0.1875
0.1885
0.1905
0.1905
0.192
0.193
0.194
0.195
0.1955
0.1965
0.1975
0.1975
0.198
0.1985
0.1995
0.1985
0.1995
0.2005
0.2015
0.2015
0.202
0.2015
0.2025
0.2025
0.20350000000000001
0.20400000000000001
0.20500000000000002
0.20400000000000001
0.20500000000000002
0.20550000000000002
0.20500000000000002
0.20450000000000002
0.20400000000000001
0.20500000000000002
0.20400000000000001
0.203
0.20400000000000001
0.20350000000000001
0.20450000000000002
0.20600000000000002
0.20700000000000002
0.20700000000000002
0.20750000000000002
0.2085
0.2095
0.20800000000000002
0.21
0.2105
0.211
0.2115
0.21
0.2085
0.2085
0.2095
0.211
0.215
0.219
0.2245
0.2425
0.299
0.445
0.7915
1.135
1.4105
1.6260000000000001
1.8065
1.9315
2.0315
2.0475
