0.5105000000000001
0.514
0.512
0.506
0.5065000000000001
0.507
0.51
0.5075000000000001
0.5085000000000001
0.5105000000000001
0.5055000000000001
0.507
0.5065000000000001
0.507
0.5075000000000001
0.5085000000000001
0.509
0.51
0.5095000000000001
0.5085000000000001
0.5095000000000001
0.509
0.5075000000000001
0.5125
0.513
0.511
0.5125
0.511
0.513
0.5145
0.5145
0.5125
0.5155
0.5135
0.515
0.5175
0.5175
0.517
0.5175
0.518
0.519
0.5205
0.519
0.5205
0.518
0.522
0.521
0.52
0.5185
0.5185
0.5205
0.52
0.5185
0.52
0.5185
0.5185
0.519
0.5195
0.5205
0.5155
0.5185
0.5165
0.516
0.519
0.5175
0.516
0.5185
0.519
0.5135
0.5175
0.5145
0.515
0.5145
0.5165
0.5175
0.5145
0.5165
0.5155
0.5195
0.5165
0.5135
0.517
0.516
0.5165
0.515
0.5145
0.518
0.5165
0.514
0.5175
0.516
0.516
0.5155
0.5175
0.515
0.5145
0.5155
0.5145
0.5135
0.5135
0.512
0.5125
0.5135
0.5135
0.516
0.5115000000000001
0.5125
0.5135
0.509
0.5105000000000001
0.511
0.512
0.5135
0.5085000000000001
0.5115000000000001
0.513
0.5135
0.5155
0.514
0.513
0.5145
0.515
0.5135
0.5145
0.5145
0.5155
0.5145
0.515
0.5145
0.5155
0.512
0.515
0.5135
0.515
0.516
0.511
0.5125
0.5125
0.511
0.5105000000000001
0.5085000000000001
0.5085000000000001
0.5125
0.5075000000000001
0.507
0.505
0.507
0.508
0.5065000000000001
0.509
0.5075000000000001
0.5075000000000001
0.5085000000000001
0.512
0.511
0.5135
0.515
0.5145
0.5165
0.5155
0.5145
0.514
0.513
0.5115000000000001
0.5155
0.5115000000000001
0.512
0.511
0.511
0.5115000000000001
0.5135
0.513
0.51
0.512
0.511
0.5115000000000001
0.514
0.5135
0.5125
0.5125
0.515
0.5125
0.5155
0.5145
0.516
0.513
0.516
0.5145
0.518
0.517
0.5175
0.517
0.519
0.519
0.5195
0.5185
0.516
0.5175
0.518
0.5195
0.5165
0.519
0.519
0.5175
0.518
0.5185
0.519
0.5195
0.5205
0.5205
0.5205
0.5225
0.5205
0.521
0.52
0.5195
0.5215
0.5215
0.5195
0.5205
0.5205
0.5215
0.521
0.523
0.5215
0.5195
0.5185
0.519
0.5195
0.5195
0.5205
0.523
0.5205
0.521
0.5225
0.52
0.5215
0.5205
0.521
0.5205
0.5205
0.522
0.5215
0.5205
0.5205
0.5225
0.5225
0.5205
0.5205
0.521
0.5215
0.521
0.521
0.5215
0.5215
0.5205
0.5205
0.5215
0.5205
0.518
0.513
0.512
0.512
0.5125
0.514
0.5155
0.516
0.5175
0.5175
0.5185
0.5185
0.5185
0.5195
0.5195
0.5205
0.5185
0.5185
0.519
0.518
0.5175
0.518
0.518
0.5175
0.517
0.5165
0.5155
0.5155
0.516
0.5165
0.5135
0.516
0.5155
0.5145
0.515
0.514
0.5135
0.5135
0.5135
0.513
0.5135
0.513
0.512
0.5135
0.5145
0.512
0.5145
0.5125
0.5145
0.5165
0.515
0.5135
0.513
0.5155
0.514
0.514
0.513
0.517
0.5175
0.5165
0.5185
0.5165
0.5155
0.5145
0.514
0.515
0.514
0.516
0.5155
0.5155
0.515
0.5155
0.5155
0.5125
0.5165
0.516
0.517
0.515
0.5145
0.513
0.5145
0.513
0.515
0.514
0.512
0.513
0.5105000000000001
0.5115000000000001
0.5095000000000001
0.512
0.5095000000000001
0.5085000000000001
0.5095000000000001
0.5095000000000001
0.5105000000000001
0.511
0.51
0.5105000000000001
0.5105000000000001
0.5105000000000001
0.5095000000000001
0.511
0.51
0.5095000000000001
0.5125
0.5145
0.5155
0.5145
0.515
0.5135
0.515
0.5145
0.514
0.5135
0.512
0.513
0.512
0.5095000000000001
0.5105000000000001
0.51
0.511
0.5105000000000001
0.511
0.5115000000000001
0.5135
0.5135
0.5155
0.514
0.5145
0.5135
0.514
0.515
0.515
0.5155
0.5135
0.5135
0.514
0.5145
0.5135
0.5095000000000001
0.509
0.511
0.5125
0.5145
0.513
0.5125
0.512
0.512
0.512
0.512
0.5125
0.5135
0.5145
0.5135
0.513
0.5135
0.5135
0.5135
0.509
0.5115000000000001
0.5105000000000001
0.514
0.5105000000000001
0.5065000000000001
0.51
0.5065000000000001
0.5075000000000001
0.5065000000000001
0.5095000000000001
0.5095000000000001
0.508
0.5105000000000001
0.512
0.511
0.5115000000000001
0.5105000000000001
0.511
0.5115000000000001
0.5125
0.514
0.511
0.5105000000000001
0.5125
0.5095000000000001
0.508
0.5075000000000001
0.5095000000000001
0.512
0.509
0.511
0.51
0.511
0.515
0.5145
0.5155
0.514
0.5115000000000001
0.5155
0.513
0.5135
0.5125
0.51
0.5115000000000001
0.5075000000000001
0.5075000000000001
0.5095000000000001
0.512
0.5115000000000001
0.512
0.5135
0.512
0.5125
0.5145
0.5145
0.5155
0.5155
0.5155
0.5145
0.516
0.5155
0.517
0.516
0.514
0.5145
0.5105000000000001
0.5105000000000001
0.514
0.513
0.51
0.5095000000000001
0.5085000000000001
0.51
0.5105000000000001
0.508
0.509
0.5085000000000001
0.5095000000000001
0.509
0.5095000000000001
0.509
0.511
0.51
0.5105000000000001
0.508
0.509
0.509
0.51
0.5115000000000001
0.5135
0.5145
0.5155
0.5155
0.5175
0.518
0.518
0.5195
0.5195
0.52
0.519
0.519
0.5195
0.5185
0.5185
0.5195
0.519
0.5185
0.519
0.521
0.5195
0.5195
0.5205
0.518
0.519
0.5185
0.5185
0.5185
0.5185
0.519
0.519
0.518
0.5175
0.517
0.5185
0.5165
0.512
0.512
0.51
0.5105000000000001
0.511
0.512
0.512
0.5135
0.5145
0.514
0.5135
0.5135
0.515
0.516
0.517
0.5165
0.5175
0.5175
0.5175
0.5165
0.5165
0.515
0.5145
0.515
0.5135
0.5135
0.514
0.5145
0.513
0.5125
0.5125
0.5135
0.5135
0.5135
0.5145
0.514
0.514
0.5155
0.5165
0.5175
0.5185
0.5165
0.517
0.5175
0.518
0.5175
0.5185
0.5185
0.518
0.5175
0.5195
0.5185
0.5195
0.517
0.5165
0.5185
0.5185
0.5185
0.519
0.518
0.5175
0.5175
0.518
0.518
0.5205
0.5185
0.5195
0.5195
0.5175
0.5185
0.518
0.52
0.5175
0.518
0.5185
0.518
0.5185
0.5175
0.518
0.518
0.5175
0.5175
0.5175
0.519
0.518
0.519
0.518
0.5165
0.516
0.516
0.5165
0.5165
0.5155
0.5165
0.515
0.5155
0.517
0.5175
0.518
0.5185
0.5185
0.518
0.5155
0.5145
0.515
0.5195
0.514
0.5135
0.5155
0.514
0.5145
0.513
0.513
0.5115000000000001
0.5155
0.5135
0.5145
0.5105000000000001
0.5135
0.5165
0.515
0.515
0.5175
0.515
0.5165
0.5165
0.515
0.5145
0.513
0.5125
0.514
0.5135
0.514
0.5165
0.515
0.5155
0.5145
0.514
0.5155
0.5165
0.514
0.5135
0.5145
0.5155
0.512
0.513
0.515
0.5135
0.514
0.512
0.5135
0.5125
0.5115000000000001
0.5115000000000001
0.515
0.5145
0.5145
0.514
0.5115000000000001
0.513
0.5125
0.5125
0.5035000000000001
0.5035000000000001
0.505
0.503
0.5035000000000001
0.5045000000000001
0.506
0.5045000000000001
0.503
0.505
0.508
0.5075000000000001
0.508
0.5065000000000001
0.5055000000000001
0.507
0.5085000000000001
0.51
0.511
0.5125
0.5125
0.5135
0.5145
0.515
0.515
0.5155
0.516
0.516
0.517
0.5165
0.5165
0.5165
0.5175
0.5175
0.5185
0.5195
0.5195
0.5175
0.5165
0.518
0.5175
0.517
0.519
0.518
0.5185
0.517
0.517
0.517
0.516
0.517
0.5175
0.5175
0.517
0.5175
0.517
0.517
0.5175
0.5195
0.5195
0.5185
0.5165
0.5175
0.517
0.517
0.517
0.517
0.5175
0.5175
0.5175
0.517
0.5165
0.5165
0.518
0.519
0.5175
0.5175
0.5175
0.5175
0.518
0.5175
0.5175
0.517
0.5165
0.5165
0.5155
0.516
0.5175
0.5175
0.5175
0.5175
0.519
0.517
0.5155
0.5155
0.5165
0.5165
0.5175
0.5175
0.5175
0.5175
0.5175
0.517
0.5185
0.5175
0.519
0.519
0.5165
0.5175
0.5175
0.517
0.517
0.517
0.517
0.5165
0.5165
0.5165
0.5185
0.5185
0.5175
0.517
0.517
0.517
0.517
0.5175
0.5165
0.5165
0.5155
0.517
0.517
0.5155
0.516
0.5165
0.5165
0.5165
0.5185
0.517
0.518
0.5155
0.5165
0.516
0.5165
0.5155
0.5155
0.5155
0.516
0.516
0.5145
0.5155
0.5135
0.51
0.5075000000000001
0.507
0.5065000000000001
0.5065000000000001
0.5025000000000001
0.502
0.5035000000000001
0.5035000000000001
0.5075000000000001
0.506
0.507
0.506
0.507
0.507
0.5085000000000001
0.51
0.5085000000000001
0.5085000000000001
0.509
0.5115000000000001
0.511
0.5105000000000001
0.5115000000000001
0.512
0.512
0.5125
0.5125
0.514
0.5135
0.513
0.5135
0.515
0.5135
0.5135
0.5155
0.515
0.5145
0.514
0.515
0.515
0.513
0.515
0.515
0.5145
0.514
0.515
0.5155
0.515
0.5145
0.5145
0.515
0.517
0.514
0.5155
0.513
0.5145
0.5135
0.5135
0.5135
0.512
0.5125
0.5125
0.513
0.5145
0.513
0.512
0.5125
0.5135
0.5135
0.5155
0.5135
0.513
0.514
0.5145
0.514
0.5125
0.5125
0.5135
0.513
0.5135
0.5155
0.5115000000000001
0.5125
0.512
0.5115000000000001
0.5125
0.5115000000000001
0.511
0.512
0.5105000000000001
0.5115000000000001
0.513
0.512
0.509
0.514
0.513
0.512
0.511
0.512
0.5095000000000001
0.5115000000000001
0.51
0.5115000000000001
0.5055000000000001
0.5075000000000001
0.5085000000000001
0.511
0.5105000000000001
0.5105000000000001
0.516
0.5135
0.512
0.5115000000000001
0.5115000000000001
0.5105000000000001
0.511
0.5095000000000001
0.511
0.5105000000000001
0.509
0.509
0.5075000000000001
0.5075000000000001
0.5065000000000001
0.5095000000000001
0.5065000000000001
0.507
0.5085000000000001
0.5075000000000001
0.509
0.508
0.5085000000000001
0.5105000000000001
0.5105000000000001
0.5105000000000001
0.5095000000000001
0.509
0.512
0.5105000000000001
0.507
0.508
0.506
0.507
0.5075000000000001
0.509
0.507
0.5075000000000001
0.506
0.505
0.5055000000000001
0.505
0.503
0.5025000000000001
0.502
0.5035000000000001
0.5055000000000001
0.5065000000000001
0.5075000000000001
0.5085000000000001
0.509
0.51
0.511
0.5115000000000001
0.5115000000000001
0.512
0.513
0.513
0.5125
0.511
0.5115000000000001
0.5105000000000001
0.5085000000000001
0.5095000000000001
0.5075000000000001
0.509
0.5115000000000001
0.512
0.5125
0.5135
0.5145
0.514
0.5145
0.5155
0.515
0.516
0.517
0.517
0.5185
0.5155
0.516
0.5165
0.5165
0.5165
0.516
0.5165
0.5165
0.5155
0.5155
0.517
0.5165
0.516
0.5175
0.514
0.5165
0.5165
0.5165
0.516
0.5165
0.517
0.516
0.5155
0.5135
0.511
0.511
0.512
0.513
0.515
0.5115000000000001
0.512
0.5085000000000001
0.51
0.508
0.51
0.5075000000000001
0.5085000000000001
0.5105000000000001
0.512
0.5125
0.511
0.51
0.51
0.5115000000000001
0.512
0.512
0.5155
0.514
0.5145
0.5145
0.5145
0.5145
0.515
0.5175
0.5165
0.5145
0.5155
0.5155
0.5165
0.5165
0.517
0.5165
0.5155
0.516
0.516
0.516
0.517
0.5175
0.515
0.515
0.5165
0.5165
0.5165
0.5155
0.5165
0.515
0.515
0.5135
0.5145
0.514
0.5145
0.5145
0.515
0.5165
0.517
0.5145
0.515
0.5155
0.515
0.5165
0.515
0.5155
0.513
0.514
0.515
0.5145
0.5145
0.5155
0.5135
0.5125
0.512
0.5125
0.512
0.5155
0.5125
0.5125
0.5105000000000001
0.5115000000000001
0.51
0.511
0.5095000000000001
0.509
0.509
0.51
0.503
0.503
0.506
0.506
0.504
0.5075000000000001
0.506
0.5055000000000001
0.508
0.5095000000000001
0.5085000000000001
0.5105000000000001
0.5135
0.5105000000000001
0.512
0.508
0.51
0.512
0.511
0.5125
0.5135
0.5115000000000001
0.5125
0.5125
0.511
0.5105000000000001
0.512
0.512
0.5115000000000001
0.5125
0.511
0.5095000000000001
0.5115000000000001
0.511
0.5125
0.5105000000000001
0.512
0.5115000000000001
0.5105000000000001
0.5125
0.513
0.512
0.514
0.5125
0.5125
0.5135
0.5115000000000001
0.5105000000000001
0.5125
0.512
0.511
0.5105000000000001
0.5115000000000001
0.511
0.509
0.508
0.5095000000000001
0.5085000000000001
0.5075000000000001
0.504
0.506
0.507
0.5085000000000001
0.506
0.5095000000000001
0.509
0.5105000000000001
0.511
0.511
0.5095000000000001
0.5105000000000001
0.5095000000000001
0.5095000000000001
0.5095000000000001
0.508
0.5095000000000001
0.509
0.508
0.509
0.51
0.5105000000000001
0.512
0.511
0.511
0.5115000000000001
0.5115000000000001
0.5115000000000001
0.512
0.5125
0.512
0.5125
0.5115000000000001
0.5125
0.514
0.5135
0.5135
0.514
0.5145
0.5145
0.5155
0.516
0.516
0.515
0.5145
0.5155
0.5155
0.5155
0.515
0.516
0.516
0.5155
0.5155
0.515
0.514
0.514
0.517
0.5155
0.517
0.5155
0.514
0.5155
0.515
0.515
0.515
0.5155
0.5155
0.515
0.5135
0.5125
0.512
0.5115000000000001
0.512
0.512
0.511
0.512
0.512
0.5125
0.5115000000000001
0.512
0.5105000000000001
0.51
0.5105000000000001
0.512
0.511
0.5105000000000001
0.51
0.51
0.5105000000000001
0.5095000000000001
0.5095000000000001
0.5095000000000001
0.509
0.5095000000000001
0.5075000000000001
0.5105000000000001
0.51
0.5075000000000001
0.506
0.5065000000000001
0.508
0.51
0.509
0.51
0.511
0.5125
0.5125
0.5125
0.5125
0.5135
0.5155
0.5145
0.5155
0.5165
0.515
0.5155
0.5155
0.5155
0.5155
0.515
0.515
0.515
0.515
0.515
0.515
0.5155
0.5155
0.517
0.5145
0.5165
0.5135
0.5155
0.516
0.5155
0.5155
0.5155
0.515
0.515
0.515
0.5145
0.5155
0.516
0.5155
0.5165
0.5155
0.516
0.5155
0.5155
0.515
0.5145
0.5155
0.5155
0.515
0.5155
0.515
0.515
0.5145
0.517
0.5155
0.5175
0.514
0.514
0.5155
0.515
0.5155
0.515
0.515
0.5135
0.514
0.5145
0.5145
0.5135
0.5135
0.5145
0.5165
0.513
0.5145
0.5145
0.514
0.514
0.5155
0.5125
0.5145
0.514
0.5125
0.5125
0.512
0.515
0.513
0.513
0.513
0.5125
0.5095000000000001
0.5115000000000001
0.511
0.5105000000000001
0.5125
0.5125
0.5105000000000001
0.5125
0.511
0.5145
0.5125
0.511
0.512
0.514
0.512
0.511
0.511
0.512
0.5125
0.5135
0.5115000000000001
0.512
0.5095000000000001
0.5095000000000001
0.5105000000000001
0.5055000000000001
0.506
0.5075000000000001
0.506
0.5055000000000001
0.5065000000000001
0.5065000000000001
0.5075000000000001
0.51
0.5075000000000001
0.508
0.511
0.511
0.5095000000000001
0.5085000000000001
0.509
0.5115000000000001
0.5085000000000001
0.5065000000000001
0.507
0.504
0.5075000000000001
0.507
0.5065000000000001
0.506
0.5045000000000001
0.506
0.503
0.5025000000000001
0.501
0.5005000000000001
0.5035000000000001
0.5015000000000001
0.503
0.501
0.4995
0.499
0.501
0.5025000000000001
0.503
0.5045000000000001
0.5015000000000001
0.5045000000000001
0.5055000000000001
0.5065000000000001
0.5025000000000001
0.5035000000000001
0.508
0.505
0.5075000000000001
0.5085000000000001
0.5115000000000001
0.511
0.5075000000000001
0.5075000000000001
0.509
0.5125
0.511
0.5105000000000001
0.5125
0.512
0.5135
0.51
0.5135
0.5115000000000001
0.5115000000000001
0.5125
0.511
0.51
0.5105000000000001
0.512
0.512
0.5125
0.5125
0.513
0.5135
0.5145
0.5145
0.5135
0.514
0.5145
0.5135
0.515
0.515
0.514
0.514
0.5145
0.5135
0.514
0.5145
0.5145
0.5135
0.5135
0.5135
0.5145
0.5145
0.5135
0.5145
0.514
0.5135
0.513
0.5135
0.5135
0.5135
0.5135
0.5145
0.5135
0.514
0.5135
0.514
0.5145
0.514
0.514
0.513
0.512
0.512
0.5105000000000001
0.5125
0.5125
0.513
0.512
0.513
0.5135
0.5125
0.5135
0.5135
0.514
0.5135
0.5145
0.514
0.5135
0.5145
0.5135
0.513
0.5135
0.514
0.5145
0.515
0.515
0.5135
0.514
0.5145
0.5135
0.5135
0.514
0.5155
0.5125
0.5135
0.5135
0.5135
0.514
0.5135
0.5135
0.5135
0.5145
0.514
0.514
0.514
0.5135
0.5155
0.5155
0.5135
0.515
0.5145
0.513
0.5125
0.5125
0.5125
0.5135
0.513
0.5125
0.513
0.5125
0.512
0.512
0.512
0.5115000000000001
0.5125
0.512
0.5095000000000001
0.5095000000000001
0.509
0.5085000000000001
0.509
0.509
0.5085000000000001
0.5095000000000001
0.5085000000000001
0.5075000000000001
0.508
0.5075000000000001
0.508
0.5065000000000001
0.507
0.507
0.5065000000000001
0.5065000000000001
0.5065000000000001
0.5065000000000001
0.506
0.506
0.507
0.5075000000000001
0.5075000000000001
0.5075000000000001
0.5095000000000001
0.5095000000000001
0.5115000000000001
0.511
0.5125
0.5105000000000001
0.5105000000000001
0.5115000000000001
0.5115000000000001
0.5105000000000001
0.5105000000000001
0.51
0.5105000000000001
0.5105000000000001
0.511
0.511
0.511
0.511
0.511
0.511
0.512
0.511
0.512
0.512
0.5115000000000001
0.515
0.516
0.5135
0.5155
0.511
0.5095000000000001
0.5115000000000001
0.5115000000000001
0.5115000000000001
0.5095000000000001
0.512
0.507
0.5105000000000001
0.5105000000000001
0.5065000000000001
0.5075000000000001
0.509
0.5075000000000001
0.507
0.5095000000000001
0.509
0.5125
0.5115000000000001
0.5095000000000001
0.5095000000000001
0.5095000000000001
0.5095000000000001
0.51
0.5105000000000001
0.51
0.5115000000000001
0.51
0.509
0.5095000000000001
0.5095000000000001
0.5085000000000001
0.5085000000000001
0.5085000000000001
0.5075000000000001
0.5085000000000001
0.5055000000000001
0.5075000000000001
0.5075000000000001
0.5085000000000001
0.509
0.51
0.5085000000000001
0.509
0.5105000000000001
0.5065000000000001
0.5065000000000001
0.509
0.508
0.51
0.5115000000000001
0.5095000000000001
0.5095000000000001
0.5085000000000001
0.5095000000000001
0.5095000000000001
0.5095000000000001
0.5085000000000001
0.5105000000000001
0.5085000000000001
0.5065000000000001
0.5065000000000001
0.508
0.508
0.507
0.5095000000000001
0.5075000000000001
0.5105000000000001
0.509
0.5085000000000001
0.51
0.5075000000000001
0.51
0.506
0.5055000000000001
0.507
0.5085000000000001
0.508
0.509
0.512
0.5105000000000001
0.5125
0.5115000000000001
0.5135
0.515
0.512
0.5115000000000001
0.5125
0.5115000000000001
0.5115000000000001
0.5105000000000001
0.5105000000000001
0.51
0.509
0.5075000000000001
0.508
0.508
0.5075000000000001
0.5075000000000001
0.5065000000000001
0.5075000000000001
0.5065000000000001
0.507
0.507
0.5065000000000001
0.507
0.5065000000000001
0.5065000000000001
0.507
0.5075000000000001
0.5065000000000001
0.5075000000000001
0.507
0.507
0.507
0.508
0.509
0.5085000000000001
0.509
0.51
0.5095000000000001
0.5115000000000001
0.5115000000000001
0.512
0.512
0.5115000000000001
0.512
0.512
0.512
0.512
0.5125
0.5125
0.513
0.5135
0.5135
0.515
0.515
0.512
0.5135
0.515
0.5145
0.515
0.514
0.5145
0.514
0.5145
0.5145
0.513
0.514
0.5145
0.5145
0.5165
0.5135
0.5135
0.5135
0.5135
0.5135
0.5145
0.5135
0.5115000000000001
0.5125
0.5095000000000001
0.5105000000000001
0.51
0.5085000000000001
0.5105000000000001
0.5105000000000001
0.511
0.512
0.512
0.512
0.5125
0.5125
0.5125
0.5125
0.513
0.5125
0.5135
0.5145
0.5135
0.5135
0.5155
0.5135
0.5135
0.5135
0.514
0.5125
0.515
0.513
0.5155
0.5125
0.511
0.5115000000000001
0.5105000000000001
0.5095000000000001
0.51
0.509
0.5095000000000001
0.51
0.5105000000000001
0.511
0.5125
0.514
0.5105000000000001
0.5115000000000001
0.5135
0.5135
0.512
0.5125
0.512
0.5125
0.5125
0.513
0.5135
0.5135
0.5135
0.5125
0.513
0.514
0.513
0.513
0.5135
0.5135
0.513
0.5135
0.5135
0.513
0.513
0.5135
0.5135
0.5135
0.5115000000000001
0.5115000000000001
0.5135
0.512
0.5105000000000001
0.5105000000000001
0.51
0.5105000000000001
0.511
0.511
0.5135
0.509
0.51
0.511
0.51
0.511
0.51
0.511
0.5125
0.5105000000000001
0.5105000000000001
0.5105000000000001
0.51
0.511
0.5085000000000001
0.509
0.5075000000000001
0.508
0.508
0.5075000000000001
0.506
0.5095000000000001
0.5065000000000001
0.5075000000000001
0.5065000000000001
0.51
0.5055000000000001
0.505
0.5025000000000001
0.502
0.5005000000000001
0.4995
0.5005000000000001
0.5015000000000001
0.5035000000000001
0.503
0.504
0.5045000000000001
0.5045000000000001
0.506
0.504
0.506
0.504
0.505
0.506
0.51
0.509
0.5085000000000001
0.509
0.509
0.5095000000000001
0.5095000000000001
0.511
0.5095000000000001
0.506
0.5115000000000001
0.505
0.5035000000000001
0.505
0.5035000000000001
0.5075000000000001
0.505
0.504
0.505
0.5105000000000001
0.5085000000000001
0.508
0.5065000000000001
0.509
0.507
0.506
0.5075000000000001
0.507
0.507
0.5075000000000001
0.511
0.513
0.509
0.509
0.5125
0.5075000000000001
0.5035000000000001
0.5055000000000001
0.5065000000000001
0.507
0.507
0.507
0.5065000000000001
0.506
0.506
0.5065000000000001
0.505
0.507
0.507
0.5045000000000001
0.5065000000000001
0.5055000000000001
0.5085000000000001
0.5085000000000001
0.5055000000000001
0.5105000000000001
0.5095000000000001
0.5075000000000001
0.5085000000000001
0.5105000000000001
0.5085000000000001
0.509
0.509
0.5085000000000001
0.5075000000000001
0.5095000000000001
0.5105000000000001
0.509
0.5095000000000001
0.51
0.511
0.5115000000000001
0.5115000000000001
0.512
0.512
0.5125
0.512
0.513
0.513
0.5135
0.5155
0.5145
0.5145
0.515
0.5145
0.5135
0.5155
0.515
0.5155
0.5155
0.514
0.5155
0.5175
0.5155
0.513
0.5155
0.5155
0.5145
0.5155
0.5155
0.515
0.515
0.515
0.5155
0.5135
0.516
0.515
0.5155
0.5145
0.515
0.5145
0.5135
0.513
0.5135
0.5145
0.5125
0.5145
0.5135
0.5135
0.513
0.512
0.512
0.5125
0.513
0.5115000000000001
0.5115000000000001
0.5105000000000001
0.5105000000000001
0.5105000000000001
0.511
0.513
0.5095000000000001
0.511
0.5115000000000001
0.512
0.5105000000000001
0.51
0.5095000000000001
0.5105000000000001
0.5095000000000001
0.5105000000000001
0.509
0.5085000000000001
0.507
0.5075000000000001
0.5075000000000001
0.507
0.5075000000000001
0.5085000000000001
0.5085000000000001
0.5085000000000001
0.5075000000000001
0.5085000000000001
0.5085000000000001
0.5095000000000001
0.5095000000000001
0.511
0.511
0.5115000000000001
0.514
0.5135
0.5105000000000001
0.512
0.5115000000000001
0.512
0.511
0.5125
0.5125
0.5115000000000001
0.512
0.512
0.512
0.512
0.512
0.5125
0.5115000000000001
0.513
0.5145
0.5125
0.5125
0.513
0.5125
0.512
0.5125
0.512
0.5125
0.513
0.5125
0.5125
0.5135
0.5125
0.5125
0.5145
0.512
0.5125
0.5135
0.5125
0.5125
0.513
0.5125
0.513
0.5125
0.511
0.5125
0.511
0.51
0.5105000000000001
0.509
0.51
0.51
0.5095000000000001
0.509
0.509
0.508
0.506
0.5065000000000001
0.507
0.5075000000000001
0.5085000000000001
0.5085000000000001
0.51
0.5095000000000001
0.5105000000000001
0.5105000000000001
0.5095000000000001
0.5095000000000001
0.5125
0.507
0.5085000000000001
0.507
0.5055000000000001
0.5055000000000001
0.5045000000000001
0.504
0.5035000000000001
0.5035000000000001
0.5035000000000001
0.505
0.5075000000000001
0.509
0.5095000000000001
0.507
0.5095000000000001
0.5095000000000001
0.51
0.512
0.511
0.5115000000000001
0.509
0.51
0.5095000000000001
0.5105000000000001
0.5105000000000001
0.5115000000000001
0.5095000000000001
0.508
0.511
0.5095000000000001
0.508
0.5095000000000001
0.509
0.5095000000000001
0.5075000000000001
0.5085000000000001
0.506
0.5065000000000001
0.5055000000000001
0.505
0.5035000000000001
0.5065000000000001
0.5075000000000001
0.5055000000000001
0.508
0.5125
0.509
0.5095000000000001
0.507
0.5055000000000001
0.5055000000000001
0.5065000000000001
0.5075000000000001
0.51
0.5085000000000001
0.506
0.503
0.508
0.5075000000000001
0.5075000000000001
0.506
0.504
0.5045000000000001
0.5025000000000001
0.502
0.5025000000000001
0.507
0.505
0.507
0.504
0.5055000000000001
0.5015000000000001
0.5045000000000001
0.5015000000000001
0.5025000000000001
0.5035000000000001
0.502
0.5035000000000001
0.504
0.5045000000000001
0.501
0.5085000000000001
0.506
0.506
0.5085000000000001
0.5045000000000001
0.5045000000000001
0.5035000000000001
0.506
0.5065000000000001
0.5035000000000001
0.5065000000000001
0.5065000000000001
0.508
0.506
0.5055000000000001
0.5065000000000001
0.507
0.5065000000000001
0.505
0.506
0.5065000000000001
0.509
0.5105000000000001
0.5075000000000001
0.5095000000000001
0.509
0.507
0.5125
0.5105000000000001
0.5075000000000001
0.5135
0.512
0.5125
0.5105000000000001
0.5085000000000001
0.5085000000000001
0.5045000000000001
0.505
0.5055000000000001
0.506
0.5075000000000001
0.508
0.5085000000000001
0.5105000000000001
0.511
0.512
0.5105000000000001
0.512
0.513
0.5125
0.5125
0.511
0.51
0.5105000000000001
0.5115000000000001
0.5115000000000001
0.5115000000000001
0.512
0.512
0.513
0.513
0.5125
0.5125
0.5135
0.513
0.5135
0.513
0.5125
0.5125
0.512
0.513
0.513
0.513
0.5155
0.514
0.514
0.5145
0.5135
0.514
0.5135
0.5135
0.513
0.5135
0.513
0.513
0.5135
0.513
0.5135
0.5135
0.5135
0.512
0.5125
0.5135
0.5125
0.513
0.5135
0.5135
0.5135
0.513
0.513
0.5125
0.5135
0.5135
0.5145
0.5145
0.5125
0.513
0.5135
0.515
0.5135
0.515
0.514
0.513
0.5135
0.5125
0.5135
0.5135
0.513
0.5135
0.5125
0.5135
0.5125
0.513
0.515
0.512
0.5135
0.512
0.511
0.511
0.511
0.511
0.5105000000000001
0.5105000000000001
0.5105000000000001
0.509
0.5095000000000001
0.5075000000000001
0.5085000000000001
0.509
0.5085000000000001
0.509
0.5085000000000001
0.508
0.507
0.5075000000000001
0.5065000000000001
0.506
0.506
0.507
0.5055000000000001
0.5065000000000001
0.505
0.5055000000000001
0.506
0.5095000000000001
0.5075000000000001
0.5075000000000001
0.5065000000000001
0.507
0.507
0.508
0.509
0.5095000000000001
0.511
0.511
0.512
0.512
0.512
0.513
0.5125
0.5125
0.5145
0.515
0.5105000000000001
0.513
0.512
0.5125
0.5115000000000001
0.5115000000000001
0.511
0.51
0.51
0.5105000000000001
0.5105000000000001
0.51
0.511
0.5105000000000001
0.5095000000000001
0.5085000000000001
0.5095000000000001
0.509
0.5105000000000001
0.51
0.511
0.511
0.513
0.509
0.51
0.5105000000000001
0.5105000000000001
0.5095000000000001
0.5095000000000001
0.5095000000000001
0.5085000000000001
0.5085000000000001
0.508
0.51
0.5095000000000001
0.5095000000000001
0.5075000000000001
0.5075000000000001
0.507
0.5075000000000001
0.5055000000000001
0.506
0.503
0.506
0.5095000000000001
0.5065000000000001
0.503
0.5105000000000001
0.5065000000000001
0.5085000000000001
0.5095000000000001
0.505
0.505
0.507
0.5055000000000001
0.506
0.5045000000000001
0.5045000000000001
0.506
0.504
0.5055000000000001
0.5045000000000001
0.505
0.5065000000000001
0.5075000000000001
0.5075000000000001
0.507
0.5085000000000001
0.506
0.5095000000000001
0.5075000000000001
0.508
0.508
0.5075000000000001
0.5075000000000001
0.509
0.5045000000000001
0.5065000000000001
0.508
0.5115000000000001
0.51
0.511
0.5115000000000001
0.5115000000000001
0.5085000000000001
0.51
0.506
0.5105000000000001
0.5105000000000001
0.507
0.5045000000000001
0.5065000000000001
0.5065000000000001
0.506
0.5065000000000001
0.5055000000000001
0.5075000000000001
0.5095000000000001
0.5075000000000001
0.5055000000000001
0.51
0.507
0.5065000000000001
0.5095000000000001
0.5105000000000001
0.5065000000000001
0.5105000000000001
0.505
0.507
0.506
0.5065000000000001
0.506
0.506
0.5025000000000001
0.5025000000000001
0.5045000000000001
0.503
0.503
0.5055000000000001
0.5055000000000001
0.506
0.5055000000000001
0.5055000000000001
0.5055000000000001
0.5055000000000001
0.5055000000000001
0.507
0.5085000000000001
0.5065000000000001
0.5055000000000001
0.5055000000000001
0.5055000000000001
0.5045000000000001
0.5025000000000001
0.503
0.502
0.5035000000000001
0.5055000000000001
0.507
0.5085000000000001
0.51
0.5115000000000001
0.5105000000000001
0.5115000000000001
0.5115000000000001
0.512
0.5115000000000001
0.512
0.5135
0.515
0.5115000000000001
0.513
0.5135
0.5135
0.5125
0.513
0.5125
0.5135
0.5125
0.514
0.5135
0.5135
0.5135
0.5125
0.5135
0.514
0.5145
0.5135
0.5135
0.5135
0.5135
0.5125
0.5135
0.5135
0.514
0.5145
0.5135
0.5125
0.5125
0.5135
0.514
0.5135
0.5135
0.514
0.514
0.5135
0.5135
0.5125
0.5125
0.5125
0.513
0.5125
0.512
0.512
0.512
0.5125
0.513
0.514
0.5135
0.5125
0.513
0.5135
0.513
0.512
0.512
0.5115000000000001
0.5125
0.5135
0.5095000000000001
0.5125
0.5115000000000001
0.5105000000000001
0.51
0.51
0.5105000000000001
0.5105000000000001
0.513
0.5115000000000001
0.511
0.5105000000000001
0.5105000000000001
0.509
0.509
0.508
0.5085000000000001
0.512
0.51
0.509
0.5105000000000001
0.511
0.5105000000000001
0.512
0.511
0.511
0.5105000000000001
0.5115000000000001
0.5115000000000001
0.5115000000000001
0.511
0.511
0.511
0.511
0.511
0.512
0.5125
0.5115000000000001
0.514
0.514
0.5125
0.5125
0.5115000000000001
0.512
0.5125
0.512
0.513
0.512
0.5125
0.512
0.5105000000000001
0.512
0.5105000000000001
0.5105000000000001
0.5095000000000001
0.51
0.51
0.5095000000000001
0.5095000000000001
0.51
0.5105000000000001
0.5105000000000001
0.511
0.509
0.5085000000000001
0.5075000000000001
0.5075000000000001
0.5065000000000001
0.5065000000000001
0.5065000000000001
0.5055000000000001
0.505
0.505
0.5055000000000001
0.5055000000000001
0.5055000000000001
0.5055000000000001
0.5055000000000001
0.5075000000000001
0.5045000000000001
0.5055000000000001
0.505
0.5035000000000001
0.5045000000000001
0.505
0.5045000000000001
0.502
0.5035000000000001
0.5025000000000001
0.5025000000000001
0.5035000000000001
0.5015000000000001
0.5025000000000001
0.5015000000000001
0.4995
0.5035000000000001
0.5045000000000001
0.5045000000000001
0.507
0.5055000000000001
0.504
0.5055000000000001
0.506
0.507
0.5085000000000001
0.508
0.507
0.508
0.5075000000000001
0.509
0.5095000000000001
0.5115000000000001
0.5085000000000001
0.5125
0.511
0.513
0.5105000000000001
0.507
0.511
0.505
0.5035000000000001
0.5035000000000001
0.5085000000000001
0.5055000000000001
0.505
0.505
0.505
0.5075000000000001
0.506
0.5075000000000001
0.508
0.5105000000000001
0.5065000000000001
0.5085000000000001
0.507
0.5075000000000001
0.509
0.5105000000000001
0.512
0.509
0.5105000000000001
0.512
0.5075000000000001
0.5065000000000001
0.5065000000000001
0.5085000000000001
0.5075000000000001
0.5075000000000001
0.5045000000000001
0.504
0.5065000000000001
0.507
0.509
0.5075000000000001
0.506
0.507
0.5075000000000001
0.5075000000000001
0.5095000000000001
0.5095000000000001
0.509
0.511
0.5115000000000001
0.5085000000000001
0.512
0.509
0.513
0.5095000000000001
0.5095000000000001
0.508
0.508
0.508
0.508
0.508
0.5065000000000001
0.5095000000000001
0.5075000000000001
0.508
0.5075000000000001
0.5065000000000001
0.506
0.508
0.508
0.5085000000000001
0.5095000000000001
0.5105000000000001
0.511
0.5115000000000001
0.5115000000000001
0.5115000000000001
0.512
0.5125
0.5125
0.5135
0.513
0.5125
0.513
0.5135
0.5125
0.5125
0.514
0.5165
0.513
0.514
0.5135
0.5135
0.5125
0.5135
0.5135
0.513
0.5125
0.5145
0.512
0.511
0.511
0.5115000000000001
0.5115000000000001
0.5125
0.5105000000000001
0.5095000000000001
0.509
0.509
0.5085000000000001
0.5085000000000001
0.509
0.5075000000000001
0.5085000000000001
0.5085000000000001
0.509
0.509
0.509
0.508
0.5075000000000001
0.5075000000000001
0.5065000000000001
0.5055000000000001
0.5045000000000001
0.5055000000000001
0.5055000000000001
0.507
0.5075000000000001
0.507
0.5075000000000001
0.5075000000000001
0.508
0.5085000000000001
0.51
0.5095000000000001
0.5105000000000001
0.5105000000000001
0.51
0.511
0.5125
0.5135
0.5125
0.5135
0.513
0.5135
0.513
0.5135
0.5135
0.5135
0.513
0.5125
0.5135
0.5135
0.513
0.515
0.5125
0.5135
0.513
0.5135
0.513
0.514
0.514
0.5135
0.513
0.513
0.5135
0.5125
0.513
0.5155
0.516
0.512
0.5135
0.5125
0.5125
0.5125
0.5125
0.5135
0.513
0.514
0.5125
0.5125
0.513
0.5135
0.5135
0.514
0.513
0.514
0.5135
0.5135
0.5125
0.513
0.513
0.513
0.5125
0.513
0.513
0.5125
0.513
0.515
0.5135
0.512
0.5125
0.513
0.5125
0.5135
0.5135
0.5115000000000001
0.512
0.51
0.5115000000000001
0.511
0.5115000000000001
0.512
0.5105000000000001
0.51
0.512
0.51
0.5125
0.509
0.508
0.507
0.5055000000000001
0.5055000000000001
0.5055000000000001
0.506
0.5065000000000001
0.5095000000000001
0.5095000000000001
0.5095000000000001
0.5115000000000001
0.5095000000000001
0.511
0.509
0.509
0.5095000000000001
0.5105000000000001
0.51
0.5095000000000001
0.51
0.5095000000000001
0.5075000000000001
0.5105000000000001
0.509
0.5085000000000001
0.51
0.511
0.5125
0.5075000000000001
0.507
0.507
0.508
0.5105000000000001
0.51
0.5095000000000001
0.5085000000000001
0.5105000000000001
0.51
0.512
0.511
0.506
0.509
0.509
0.5115000000000001
0.509
0.508
0.507
0.5085000000000001
0.5085000000000001
0.511
0.506
0.509
0.5065000000000001
0.5035000000000001
0.5045000000000001
0.5025000000000001
0.5055000000000001
0.5025000000000001
0.501
0.502
0.5045000000000001
0.501
0.5025000000000001
0.5025000000000001
0.5
0.5015000000000001
0.5035000000000001
0.5005000000000001
0.5005000000000001
0.501
0.5025000000000001
0.503
0.5035000000000001
0.5025000000000001
0.5025000000000001
0.5005000000000001
0.5035000000000001
0.5005000000000001
0.5045000000000001
0.5045000000000001
0.5035000000000001
0.5045000000000001
0.5015000000000001
0.504
0.5055000000000001
0.5065000000000001
0.506
0.5085000000000001
0.507
0.5055000000000001
0.505
0.5075000000000001
0.5045000000000001
0.5065000000000001
0.506
0.5065000000000001
0.506
0.509
0.5085000000000001
0.51
0.509
0.5095000000000001
0.5105000000000001
0.508
0.508
0.5095000000000001
0.506
0.5045000000000001
0.5095000000000001
0.5095000000000001
0.506
0.509
0.5085000000000001
0.509
0.511
0.508
0.5105000000000001
0.507
0.508
0.5095000000000001
0.5125
0.5095000000000001
0.512
0.5135
0.511
0.512
0.512
0.5135
0.512
0.513
0.513
0.515
0.5135
0.515
0.5145
0.514
0.5145
0.5135
0.5135
0.513
0.513
0.5135
0.514
0.5155
0.5135
0.5125
0.5135
0.5135
0.5125
0.5155
0.5105000000000001
0.512
0.514
0.51
0.511
0.51
0.51
0.5105000000000001
0.5115000000000001
0.512
0.513
0.512
0.512
0.5135
0.514
0.5125
0.5125
0.5135
0.5135
0.5135
0.513
0.5135
0.513
0.5135
0.5135
0.513
0.514
0.5125
0.5125
0.513
0.5155
0.5165
0.5135
0.5135
0.513
0.513
0.513
0.5135
0.5135
0.5135
0.513
0.514
0.5135
0.513
0.5145
0.5135
0.5135
0.513
0.5125
0.512
0.5115000000000001
0.512
0.5105000000000001
0.511
0.51
0.5095000000000001
0.5095000000000001
0.5095000000000001
0.509
0.5095000000000001
0.5095000000000001
0.5095000000000001
0.5085000000000001
0.509
0.5095000000000001
0.5105000000000001
0.5075000000000001
0.506
0.5075000000000001
0.5065000000000001
0.5065000000000001
0.5055000000000001
0.505
0.5055000000000001
0.505
0.5055000000000001
0.5065000000000001
0.5065000000000001
0.5075000000000001
0.507
0.5075000000000001
0.5075000000000001
0.5085000000000001
0.509
0.51
0.511
0.511
0.512
0.514
0.5105000000000001
0.5135
0.5125
0.513
0.513
0.5125
0.5125
0.5125
0.5135
0.514
0.5135
0.513
0.5125
0.515
0.512
0.5135
0.513
0.5135
0.513
0.5135
0.5135
0.5135
0.514
0.5155
0.513
0.512
0.51
0.5095000000000001
0.5085000000000001
0.508
0.5075000000000001
0.507
0.507
0.5045000000000001
0.506
0.505
0.5055000000000001
0.5055000000000001
0.5055000000000001
0.506
0.5045000000000001
0.505
0.504
0.505
0.5065000000000001
0.5055000000000001
0.505
0.5035000000000001
0.506
0.5035000000000001
0.5055000000000001
0.505
0.5055000000000001
0.5065000000000001
0.507
0.509
0.5075000000000001
0.5085000000000001
0.5115000000000001
0.508
0.5105000000000001
0.5125
0.51
0.5105000000000001
0.508
0.51
0.5095000000000001
0.5135
0.512
0.5085000000000001
0.5085000000000001
0.5095000000000001
0.51
0.5075000000000001
0.508
0.506
0.5035000000000001
0.5025000000000001
0.5
0.5065000000000001
0.506
0.505
0.508
0.5065000000000001
0.5085000000000001
0.5075000000000001
0.5115000000000001
0.508
0.511
0.509
0.5095000000000001
0.5095000000000001
0.51
0.5095000000000001
0.5105000000000001
0.511
0.5095000000000001
0.5105000000000001
0.507
0.5115000000000001
0.508
0.5055000000000001
0.5075000000000001
0.508
0.5115000000000001
0.5095000000000001
0.5095000000000001
0.5095000000000001
0.5105000000000001
0.508
0.5085000000000001
0.5065000000000001
0.504
0.507
0.5035000000000001
0.4995
0.505
0.503
0.502
0.5035000000000001
0.5025000000000001
0.5025000000000001
0.5025000000000001
0.5035000000000001
0.5025000000000001
0.5055000000000001
0.503
0.5015000000000001
0.499
0.5005000000000001
0.5025000000000001
0.4995
0.501
0.5025000000000001
0.501
0.5035000000000001
0.505
0.5035000000000001
0.5055000000000001
0.502
0.5025000000000001
0.502
0.502
0.5025000000000001
0.502
0.5035000000000001
0.504
0.5065000000000001
0.5065000000000001
0.508
0.509
0.5095000000000001
0.51
0.51
0.5115000000000001
0.5135
0.5105000000000001
0.512
0.512
0.5125
0.513
0.5125
0.512
0.5125
0.5125
0.5125
0.5125
0.514
0.5135
0.5145
0.5145
0.5135
0.5135
0.514
0.513
0.5125
0.513
0.513
0.5135
0.5135
0.5135
0.5135
0.5125
0.516
0.5145
0.514
0.5135
0.513
0.5135
0.513
0.5125
0.5125
0.5125
0.513
0.5135
0.513
0.5135
0.515
0.5125
0.513
0.5125
0.5125
0.5125
0.5135
0.513
0.5125
0.5135
0.5125
0.5125
0.5125
0.5125
0.5145
0.512
0.5125
0.5125
0.5135
0.513
0.5125
0.5125
0.514
0.5125
0.512
0.5115000000000001
0.512
0.512
0.512
0.5125
0.512
0.5125
0.5105000000000001
0.5125
0.513
0.51
0.512
0.5115000000000001
0.512
0.5135
0.515
0.5125
0.5085000000000001
0.5095000000000001
0.5085000000000001
0.507
0.5075000000000001
0.508
0.508
0.5085000000000001
0.505
0.5075000000000001
0.5095000000000001
0.5105000000000001
0.5115000000000001
0.5095000000000001
0.5095000000000001
0.5095000000000001
0.511
0.51
0.511
0.5115000000000001
0.511
0.511
0.5115000000000001
0.512
0.512
0.5115000000000001
0.5115000000000001
0.511
0.5115000000000001
0.5115000000000001
0.5115000000000001
0.511
0.51
0.514
0.5115000000000001
0.508
0.51
0.51
0.5105000000000001
0.509
0.5115000000000001
0.5095000000000001
0.5085000000000001
0.509
0.5095000000000001
0.5085000000000001
0.5085000000000001
0.508
0.5085000000000001
0.5065000000000001
0.5055000000000001
0.5055000000000001
0.5045000000000001
0.5035000000000001
0.5045000000000001
0.5045000000000001
0.5045000000000001
0.504
0.5045000000000001
0.5035000000000001
0.5035000000000001
0.5035000000000001
0.503
0.5025000000000001
0.503
0.5035000000000001
0.5055000000000001
0.506
0.5065000000000001
0.5035000000000001
0.5045000000000001
0.5045000000000001
0.506
0.5085000000000001
0.5065000000000001
0.5085000000000001
0.504
0.5035000000000001
0.505
0.5045000000000001
0.504
0.507
0.504
0.5055000000000001
0.506
0.5075000000000001
0.5055000000000001
0.508
0.5075000000000001
0.507
0.5075000000000001
0.5085000000000001
0.5035000000000001
0.5045000000000001
0.505
0.504
0.504
0.506
0.506
0.507
0.506
0.505
0.505
0.51
0.5095000000000001
0.51
0.509
0.5095000000000001
0.5055000000000001
0.512
0.511
0.508
0.5075000000000001
0.5075000000000001
0.5075000000000001
0.5085000000000001
0.5065000000000001
0.5085000000000001
0.5065000000000001
0.5105000000000001
0.508
0.5045000000000001
0.5065000000000001
0.508
0.5055000000000001
0.51
0.5085000000000001
0.508
0.5095000000000001
0.508
0.5075000000000001
0.5095000000000001
0.508
0.51
0.5075000000000001
0.5045000000000001
0.505
0.506
0.508
0.5025000000000001
0.5035000000000001
0.508
0.51
0.51
0.506
0.5065000000000001
0.5075000000000001
0.5055000000000001
0.5065000000000001
0.508
0.509
0.5095000000000001
0.5075000000000001
0.5055000000000001
0.5075000000000001
0.5065000000000001
0.507
0.5055000000000001
0.5065000000000001
0.508
0.509
0.509
0.5095000000000001
0.512
0.509
0.511
0.51
0.5085000000000001
0.509
0.5135
0.509
0.5095000000000001
0.5105000000000001
0.511
0.511
0.5115000000000001
0.5115000000000001
0.5135
0.513
0.5115000000000001
0.511
0.5095000000000001
0.51
0.5115000000000001
0.5135
0.512
0.512
0.5115000000000001
0.5125
0.5125
0.512
0.5115000000000001
0.51
0.5105000000000001
0.51
0.51
0.51
0.5095000000000001
0.5095000000000001
0.508
0.51
0.51
0.5125
0.5105000000000001
0.5115000000000001
0.51
0.5105000000000001
0.5085000000000001
0.508
0.5075000000000001
0.5075000000000001
0.508
0.5075000000000001
0.5075000000000001
0.507
0.507
0.507
0.5075000000000001
0.508
0.5085000000000001
0.5085000000000001
0.5085000000000001
0.5085000000000001
0.509
0.509
0.509
0.5095000000000001
0.5105000000000001
0.511
0.5115000000000001
0.5125
0.5135
0.511
0.512
0.5125
0.512
0.512
0.5125
0.513
0.5135
0.5135
0.5135
0.5125
0.512
0.512
0.5125
0.512
0.5125
0.5125
0.5135
0.5135
0.5135
0.5125
0.513
0.513
0.513
0.512
0.5125
0.5125
0.513
0.5125
0.5135
0.5145
0.511
0.5125
0.5125
0.5125
0.512
0.512
0.512
0.5125
0.513
0.5125
0.5125
0.5125
0.512
0.513
0.5125
0.513
0.513
0.513
0.513
0.5125
0.5125
0.513
0.5135
0.5135
0.5125
0.5125
0.5125
0.5155
0.5125
0.5135
0.5135
0.513
0.5125
0.5125
0.5125
0.5125
0.5125
0.5125
0.5125
0.512
0.5125
0.512
0.5125
0.512
0.514
0.5115000000000001
0.512
0.512
0.512
0.512
0.5115000000000001
0.5115000000000001
0.512
0.512
0.511
0.512
0.511
0.5115000000000001
0.5095000000000001
0.5085000000000001
0.5095000000000001
0.5095000000000001
0.509
0.509
0.5125
0.5095000000000001
0.51
0.5095000000000001
0.512
0.51
0.509
0.509
0.5075000000000001
0.5095000000000001
0.5055000000000001
0.505
0.5045000000000001
0.5045000000000001
0.5045000000000001
0.503
0.5035000000000001
0.504
0.5035000000000001
0.5035000000000001
0.5055000000000001
0.508
0.507
0.5085000000000001
0.5075000000000001
0.506
0.506
0.5065000000000001
0.504
0.5065000000000001
0.507
0.5065000000000001
0.508
0.5075000000000001
0.5065000000000001
0.505
0.5055000000000001
0.5035000000000001
0.501
0.5025000000000001
0.499
0.499
0.5
0.5005000000000001
0.502
0.5015000000000001
0.5015000000000001
0.5045000000000001
0.5065000000000001
0.503
0.502
0.5
0.505
0.5015000000000001
0.5025000000000001
0.506
0.5045000000000001
0.503
0.504
0.505
0.5045000000000001
0.504
0.5055000000000001
0.5035000000000001
0.5065000000000001
0.5075000000000001
0.51
0.508
0.5105000000000001
0.5125
0.51
0.508
0.505
0.5065000000000001
0.509
0.5065000000000001
0.507
0.5075000000000001
0.5055000000000001
0.508
0.508
0.507
0.5065000000000001
0.5065000000000001
0.506
0.504
0.5035000000000001
0.508
0.5085000000000001
0.5065000000000001
0.5065000000000001
0.5075000000000001
0.5055000000000001
0.5065000000000001
0.5075000000000001
0.5085000000000001
0.5115000000000001
0.508
0.5085000000000001
0.5085000000000001
0.5085000000000001
0.5085000000000001
0.5095000000000001
0.507
0.5095000000000001
0.5085000000000001
0.5095000000000001
0.5075000000000001
0.511
0.509
0.5065000000000001
0.5085000000000001
0.5065000000000001
0.506
0.505
0.5065000000000001
0.5075000000000001
0.5075000000000001
0.509
0.5095000000000001
0.51
0.51
0.51
0.51
0.51
0.511
0.5125
0.513
0.5135
0.511
0.512
0.512
0.512
0.512
0.512
0.5125
0.5125
0.512
0.5125
0.5115000000000001
0.512
0.513
0.5125
0.5135
0.511
0.5135
0.513
0.5125
0.512
0.512
0.512
0.5125
0.512
0.5115000000000001
0.5125
0.5115000000000001
0.512
0.5145
0.5125
0.508
0.512
0.5115000000000001
0.5115000000000001
0.5085000000000001
0.5095000000000001
0.5095000000000001
0.5105000000000001
0.5095000000000001
0.5095000000000001
0.5105000000000001
0.51
0.5105000000000001
0.51
0.5105000000000001
0.511
0.5115000000000001
0.513
0.5115000000000001
0.5105000000000001
0.5105000000000001
0.5105000000000001
0.5105000000000001
0.509
0.509
0.509
0.5085000000000001
0.5095000000000001
0.5105000000000001
0.5085000000000001
0.509
0.5055000000000001
0.508
0.508
0.5085000000000001
0.5085000000000001
0.508
0.5075000000000001
0.507
0.508
0.507
0.507
0.507
0.5065000000000001
0.5065000000000001
0.504
0.5085000000000001
0.509
0.506
0.509
0.5085000000000001
0.5095000000000001
0.5085000000000001
0.5085000000000001
0.508
0.5075000000000001
0.5085000000000001
0.508
0.5085000000000001
0.509
0.51
0.5105000000000001
0.5095000000000001
0.51
0.5105000000000001
0.5115000000000001
0.5105000000000001
0.5105000000000001
0.51
0.51
0.5115000000000001
0.511
0.511
0.512
0.5125
0.512
0.5125
0.5135
0.5135
0.5125
0.513
0.5125
0.5125
0.5125
0.5125
0.513
0.5125
0.513
0.512
0.5125
0.5125
0.5135
0.5125
0.513
0.5125
0.5125
0.511
0.5135
0.511
0.509
0.509
0.5085000000000001
0.5105000000000001
0.5075000000000001
0.5065000000000001
0.508
0.5065000000000001
0.505
0.5065000000000001
0.5055000000000001
0.5075000000000001
0.508
0.508
0.5085000000000001
0.508
0.5085000000000001
0.5085000000000001
0.509
0.5085000000000001
0.51
0.51
0.5105000000000001
0.51
0.5105000000000001
0.511
0.512
0.5095000000000001
0.509
0.5105000000000001
0.5095000000000001
0.5095000000000001
0.5095000000000001
0.5085000000000001
0.5075000000000001
0.508
0.5085000000000001
0.5095000000000001
0.5115000000000001
0.5095000000000001
0.509
0.509
0.5105000000000001
0.5085000000000001
0.5085000000000001
0.51
0.509
0.51
0.5115000000000001
0.509
0.5065000000000001
0.5055000000000001
0.505
0.5055000000000001
0.506
0.508
0.5075000000000001
0.5085000000000001
0.5085000000000001
0.5095000000000001
0.509
0.509
0.5095000000000001
0.509
0.5085000000000001
0.5085000000000001
0.5085000000000001
0.5095000000000001
0.5095000000000001
0.5095000000000001
0.5085000000000001
0.513
0.5115000000000001
0.51
0.5115000000000001
0.5085000000000001
0.5075000000000001
0.506
0.504
0.504
0.5035000000000001
0.5075000000000001
0.503
0.505
0.508
0.507
0.508
0.507
0.508
0.5075000000000001
0.507
0.5075000000000001
0.5075000000000001
0.507
0.507
0.5065000000000001
0.5055000000000001
0.5045000000000001
0.5015000000000001
0.5005000000000001
0.5005000000000001
0.5015000000000001
0.5005000000000001
0.503
0.5005000000000001
0.5015000000000001
0.4955
0.4985
0.4985
0.4995
0.5005000000000001
0.5025000000000001
0.501
0.502
0.502
0.506
0.505
0.5075000000000001
0.5015000000000001
0.5065000000000001
0.506
0.5055000000000001
0.507
0.508
0.5055000000000001
0.507
0.508
0.507
0.5085000000000001
0.506
0.506
0.5075000000000001
0.5055000000000001
0.5085000000000001
0.507
0.5055000000000001
0.5065000000000001
0.505
0.507
0.51
0.504
0.5075000000000001
0.51
0.5075000000000001
0.5105000000000001
0.508
0.5075000000000001
0.5085000000000001
0.5045000000000001
0.506
0.5055000000000001
0.505
0.5045000000000001
0.5045000000000001
0.5055000000000001
0.504
0.507
0.509
0.509
0.511
0.5085000000000001
0.5105000000000001
0.5045000000000001
0.5045000000000001
0.5005000000000001
0.5045000000000001
0.507
0.5065000000000001
0.508
0.5085000000000001
0.508
0.508
0.5085000000000001
0.5095000000000001
0.509
0.5095000000000001
0.511
0.5125
0.513
0.513
0.5125
0.513
0.5125
0.513
0.513
0.513
0.513
0.5135
0.5135
0.5135
0.5135
0.5135
0.514
0.5125
0.513
0.515
0.516
0.511
0.513
0.513
0.5125
0.513
0.512
0.5125
0.5135
0.514
0.514
0.5125
0.5135
0.512
0.513
0.5145
0.512
0.513
0.5125
0.511
0.511
0.509
0.508
0.5105000000000001
0.5105000000000001
0.51
0.5095000000000001
0.5105000000000001
0.5095000000000001
0.5115000000000001
0.5115000000000001
0.51
0.5135
0.511
0.509
0.5105000000000001
0.5085000000000001
0.511
0.509
0.509
0.509
0.5085000000000001
0.5085000000000001
0.5095000000000001
0.5105000000000001
0.5075000000000001
0.5095000000000001
0.5115000000000001
0.507
0.5075000000000001
0.507
0.5075000000000001
0.5095000000000001
0.5075000000000001
0.5085000000000001
0.5075000000000001
0.5075000000000001
0.507
0.507
0.5065000000000001
0.5065000000000001
0.506
0.5075000000000001
0.5065000000000001
0.5075000000000001
0.5055000000000001
0.5045000000000001
0.5045000000000001
0.5045000000000001
0.5035000000000001
0.5055000000000001
0.5055000000000001
0.5075000000000001
0.507
0.5095000000000001
0.508
0.5075000000000001
0.5075000000000001
0.509
0.5095000000000001
0.5095000000000001
0.51
0.5105000000000001
0.511
0.512
0.511
0.5115000000000001
0.5115000000000001
0.512
0.512
0.512
0.513
0.5125
0.5115000000000001
0.512
0.5105000000000001
0.5115000000000001
0.5115000000000001
0.51
0.51
0.51
0.51
0.511
0.5115000000000001
0.511
0.5115000000000001
0.512
0.512
0.5115000000000001
0.511
0.511
0.511
0.511
0.5115000000000001
0.512
0.512
0.512
0.5125
0.512
0.512
0.512
0.5115000000000001
0.512
0.512
0.5125
0.512
0.512
0.512
0.5115000000000001
0.5125
0.514
0.5115000000000001
0.5105000000000001
0.5115000000000001
0.512
0.511
0.51
0.508
0.5075000000000001
0.5075000000000001
0.506
0.505
0.505
0.5045000000000001
0.5065000000000001
0.506
0.5075000000000001
0.508
0.509
0.509
0.508
0.51
0.511
0.509
0.5075000000000001
0.507
0.5055000000000001
0.5055000000000001
0.5045000000000001
0.5065000000000001
0.5075000000000001
0.51
0.509
0.5105000000000001
0.5085000000000001
0.51
0.509
0.5105000000000001
0.512
0.5065000000000001
0.5095000000000001
0.5085000000000001
0.509
0.5065000000000001
0.509
0.505
0.5045000000000001
0.506
0.5045000000000001
0.504
0.5065000000000001
0.506
0.5065000000000001
0.5025000000000001
0.5045000000000001
0.506
0.5065000000000001
0.5095000000000001
0.5075000000000001
0.5085000000000001
0.509
0.507
0.508
0.51
0.5075000000000001
0.507
0.506
0.5065000000000001
0.5055000000000001
0.5055000000000001
0.508
0.504
0.5035000000000001
0.5095000000000001
0.507
0.507
0.5055000000000001
0.5045000000000001
0.5055000000000001
0.5065000000000001
0.51
0.5075000000000001
0.5035000000000001
0.507
0.5065000000000001
0.501
0.5025000000000001
0.505
0.5055000000000001
0.5115000000000001
0.5085000000000001
0.505
0.506
0.506
0.5075000000000001
0.508
0.5065000000000001
0.505
0.502
0.501
0.502
0.5025000000000001
0.5005000000000001
0.5045000000000001
0.504
0.506
0.5055000000000001
0.5065000000000001
0.5075000000000001
0.5085000000000001
0.51
0.5065000000000001
0.5065000000000001
0.51
0.51
0.51
0.5085000000000001
0.5075000000000001
0.508
0.5105000000000001
0.507
0.51
0.5115000000000001
0.508
0.5085000000000001
0.508
0.509
0.509
0.509
0.5105000000000001
0.5095000000000001
0.51
0.51
0.511
0.5115000000000001
0.512
0.5115000000000001
0.512
0.511
0.5135
0.513
0.5125
0.5145
0.511
0.5125
0.513
0.5125
0.513
0.513
0.5125
0.5125
0.512
0.5125
0.5145
0.5145
0.513
0.513
0.5135
0.514
0.513
0.5135
0.5145
0.5135
0.5135
0.513
0.512
0.512
0.5125
0.513
0.512
0.5125
0.5125
0.5125
0.5125
0.511
0.51
0.511
0.5105000000000001
0.5125
0.5115000000000001
0.5105000000000001
0.5085000000000001
0.51
0.51
0.51
0.5105000000000001
0.5105000000000001
0.511
0.512
0.511
0.512
0.511
0.5115000000000001
0.512
0.512
0.512
0.5145
0.5125
0.5125
0.5125
0.5125
0.512
0.512
0.5125
0.513
0.513
0.5125
0.512
0.5115000000000001
0.5115000000000001
0.5125
0.515
0.5105000000000001
0.5125
0.5115000000000001
0.512
0.512
0.512
0.5115000000000001
0.512
0.511
0.511
0.5125
0.512
0.512
0.5115000000000001
0.5115000000000001
0.5125
0.511
0.5115000000000001
0.5125
0.51
0.51
0.5105000000000001
0.5095000000000001
0.5085000000000001
0.5095000000000001
0.5075000000000001
0.507
0.506
0.506
0.5055000000000001
0.5055000000000001
0.507
0.5075000000000001
0.5055000000000001
0.5065000000000001
0.506
0.5055000000000001
0.5055000000000001
0.506
0.5055000000000001
0.5055000000000001
0.505
0.506
0.5045000000000001
0.5045000000000001
0.5045000000000001
0.5045000000000001
0.504
0.5055000000000001
0.508
0.5065000000000001
0.5065000000000001
0.507
0.507
0.508
0.5095000000000001
0.5095000000000001
0.511
0.511
0.5115000000000001
0.5125
0.512
0.5105000000000001
0.5095000000000001
0.5095000000000001
0.51
0.51
0.5105000000000001
0.5095000000000001
0.509
0.5085000000000001
0.509
0.51
0.5095000000000001
0.51
0.5095000000000001
0.5095000000000001
0.51
0.5105000000000001
0.5095000000000001
0.5115000000000001
0.5075000000000001
0.5085000000000001
0.5075000000000001
0.5075000000000001
0.508
0.5065000000000001
0.507
0.5055000000000001
0.507
0.5075000000000001
0.5065000000000001
0.5065000000000001
0.506
0.509
0.5095000000000001
0.509
0.5105000000000001
0.5095000000000001
0.5125
0.5085000000000001
0.51
0.509
0.5095000000000001
0.5095000000000001
0.5115000000000001
0.509
0.509
0.509
0.5085000000000001
0.506
0.5075000000000001
0.505
0.504
0.506
0.505
0.505
0.5035000000000001
0.5045000000000001
0.5065000000000001
0.5045000000000001
0.507
0.507
0.504
0.5045000000000001
0.505
0.509
0.506
0.507
0.5065000000000001
0.507
0.506
0.513
0.507
0.504
0.5095000000000001
0.51
0.5075000000000001
0.505
0.506
0.5045000000000001
0.5055000000000001
0.5095000000000001
0.5085000000000001
0.5095000000000001
0.5085000000000001
0.51
0.5105000000000001
0.509
0.5055000000000001
0.509
0.5075000000000001
0.504
0.5055000000000001
0.5025000000000001
0.505
0.5045000000000001
0.5045000000000001
0.5055000000000001
0.507
0.5045000000000001
0.5065000000000001
0.5085000000000001
0.5045000000000001
0.5065000000000001
0.5085000000000001
0.5075000000000001
0.509
0.508
0.5095000000000001
0.5075000000000001
0.5035000000000001
0.503
0.5035000000000001
0.5045000000000001
0.5075000000000001
0.505
0.5035000000000001
0.5015000000000001
0.503
0.5085000000000001
0.5025000000000001
0.5065000000000001
0.5025000000000001
0.5055000000000001
0.503
0.5035000000000001
0.5035000000000001
0.5025000000000001
0.504
0.5035000000000001
0.5035000000000001
0.5045000000000001
0.504
0.506
0.5065000000000001
0.5055000000000001
0.5065000000000001
0.5055000000000001
0.5055000000000001
0.5065000000000001
0.5075000000000001
0.5085000000000001
0.51
0.511
0.513
0.5105000000000001
0.5115000000000001
0.512
0.512
0.512
0.5125
0.5125
0.512
0.5125
0.5125
0.5125
0.5135
0.5135
0.5125
0.5135
0.513
0.515
0.512
0.513
0.514
0.5135
0.5135
0.5135
0.513
0.5135
0.5135
0.513
0.5135
0.514
0.5135
0.513
0.514
0.5135
0.5155
0.5145
0.514
0.513
0.514
0.513
0.5125
0.513
0.5125
0.5135
0.5135
0.5125
0.513
0.513
0.5125
0.513
0.5125
0.513
0.513
0.5135
0.5135
0.514
0.5135
0.513
0.5135
0.5135
0.5135
0.513
0.513
0.5125
0.5135
0.513
0.5125
0.5125
0.513
0.5115000000000001
0.512
0.51
0.5095000000000001
0.5095000000000001
0.5105000000000001
0.509
0.5105000000000001
0.5105000000000001
0.5105000000000001
0.5105000000000001
0.5105000000000001
0.5105000000000001
0.51
0.5105000000000001
0.511
0.5125
0.512
0.5115000000000001
0.511
0.5115000000000001
0.5115000000000001
0.5105000000000001
0.5115000000000001
0.511
0.5105000000000001
0.51
0.5105000000000001
0.511
0.5115000000000001
0.511
0.5115000000000001
0.5105000000000001
0.5115000000000001
0.512
0.5115000000000001
0.5115000000000001
0.511
0.511
0.5115000000000001
0.511
0.511
0.511
0.5105000000000001
0.5095000000000001
0.5095000000000001
0.5115000000000001
0.511
0.511
0.511
0.511
0.5115000000000001
0.5115000000000001
0.5115000000000001
0.511
0.5115000000000001
0.5105000000000001
0.5115000000000001
0.5095000000000001
0.5095000000000001
0.509
0.508
0.5075000000000001
0.5075000000000001
0.5095000000000001
0.5065000000000001
0.5055000000000001
0.5065000000000001
0.5055000000000001
0.5055000000000001
0.5055000000000001
0.5035000000000001
0.5065000000000001
0.5035000000000001
0.5025000000000001
0.5055000000000001
0.5035000000000001
0.502
0.502
0.503
0.5045000000000001
0.5035000000000001
0.5035000000000001
0.505
0.504
0.5035000000000001
0.5015000000000001
0.502
0.5035000000000001
0.5025000000000001
0.505
0.507
0.504
0.5035000000000001
0.508
0.5035000000000001
0.5045000000000001
0.5045000000000001
0.503
0.5055000000000001
0.5055000000000001
0.5065000000000001
0.5065000000000001
0.507
0.5095000000000001
0.5075000000000001
0.5085000000000001
0.5105000000000001
0.5125
0.5085000000000001
0.5105000000000001
0.5095000000000001
0.508
0.5095000000000001
0.5065000000000001
0.508
0.511
0.5095000000000001
0.508
0.5095000000000001
0.507
0.507
0.5085000000000001
0.504
0.5085000000000001
0.506
0.5085000000000001
0.506
0.505
0.5075000000000001
0.508
0.507
0.505
0.5085000000000001
0.506
0.507
0.506
0.509
0.508
0.511
0.5105000000000001
0.5085000000000001
0.51
0.509
0.5055000000000001
0.5065000000000001
0.504
0.5045000000000001
0.5035000000000001
0.5035000000000001
0.5065000000000001
0.5075000000000001
0.505
0.5065000000000001
0.5065000000000001
0.5065000000000001
0.5075000000000001
0.508
0.5065000000000001
0.508
0.5085000000000001
0.5065000000000001
0.5095000000000001
0.5045000000000001
0.507
0.5085000000000001
0.505
0.504
0.5075000000000001
0.504
0.5065000000000001
0.5065000000000001
0.508
0.508
0.5085000000000001
0.5085000000000001
0.5085000000000001
0.51
0.5095000000000001
0.511
0.5115000000000001
0.512
0.5115000000000001
0.5105000000000001
0.5105000000000001
0.5105000000000001
0.51
0.5095000000000001
0.51
0.5135
0.511
0.5125
0.5105000000000001
0.512
0.511
0.508
0.5145
0.5115000000000001
0.5095000000000001
0.5095000000000001
0.5105000000000001
0.5085000000000001
0.5095000000000001
0.5085000000000001
0.507
0.5075000000000001
0.5095000000000001
0.509
0.51
0.511
0.512
0.508
0.509
0.5085000000000001
0.509
0.5085000000000001
0.5075000000000001
0.5065000000000001
0.508
0.5105000000000001
0.5065000000000001
0.5105000000000001
0.5065000000000001
0.504
0.5035000000000001
0.5035000000000001
0.5035000000000001
0.5035000000000001
0.503
0.5035000000000001
0.5045000000000001
0.5045000000000001
0.5025000000000001
0.5035000000000001
0.5045000000000001
0.5045000000000001
0.5065000000000001
0.506
0.507
0.5065000000000001
0.506
0.5075000000000001
0.5065000000000001
0.5085000000000001
0.5085000000000001
0.5105000000000001
0.5095000000000001
0.51
0.51
0.511
0.512
0.512
0.512
0.512
0.5125
0.5125
0.5125
0.512
0.5125
0.5125
0.5125
0.513
0.5125
0.512
0.5125
0.514
0.515
0.513
0.5125
0.5135
0.513
0.5135
0.513
0.512
0.5125
0.5125
0.512
0.513
0.5135
0.513
0.5125
0.5135
0.5115000000000001
0.5115000000000001
0.512
0.512
0.5125
0.5125
0.5115000000000001
0.512
0.512
0.512
0.512
0.512
0.5125
0.5125
0.5125
0.5125
0.5135
0.5105000000000001
0.5135
0.5125
0.5125
0.5125
0.5115000000000001
0.512
0.512
0.5115000000000001
0.5125
0.512
0.5125
0.513
0.513
0.513
0.512
0.512
0.5115000000000001
0.5115000000000001
0.5105000000000001
0.5095000000000001
0.511
0.51
0.5095000000000001
0.5085000000000001
0.5095000000000001
0.511
0.5115000000000001
0.51
0.5075000000000001
0.5095000000000001
0.5085000000000001
0.509
0.509
0.5085000000000001
0.5085000000000001
0.5095000000000001
0.509
0.5085000000000001
0.51
0.51
0.5095000000000001
0.5095000000000001
0.5105000000000001
0.5105000000000001
0.508
0.5085000000000001
0.508
0.5085000000000001
0.508
0.509
0.509
0.507
0.5075000000000001
0.5075000000000001
0.5115000000000001
0.509
0.512
0.5085000000000001
0.509
0.5085000000000001
0.5075000000000001
0.5085000000000001
0.5075000000000001
0.51
0.507
0.5095000000000001
0.5075000000000001
0.506
0.5065000000000001
0.5085000000000001
0.5085000000000001
0.506
0.5055000000000001
0.5055000000000001
0.507
0.5055000000000001
0.506
0.5045000000000001
0.506
0.5035000000000001
0.5045000000000001
0.502
0.499
0.505
0.506
0.509
0.51
0.5075000000000001
0.5065000000000001
0.503
0.5025000000000001
0.5025000000000001
0.5
0.503
0.5045000000000001
0.5065000000000001
0.5035000000000001
0.5015000000000001
0.5055000000000001
0.5035000000000001
0.5035000000000001
0.5025000000000001
0.5035000000000001
0.504
0.505
0.5075000000000001
0.5105000000000001
0.5085000000000001
0.5075000000000001
0.5065000000000001
0.5095000000000001
0.5075000000000001
0.5085000000000001
0.5075000000000001
0.508
0.5075000000000001
0.504
0.506
0.506
0.505
0.5085000000000001
0.5075000000000001
0.509
0.508
0.5035000000000001
0.508
0.507
0.5065000000000001
0.5085000000000001
0.509
0.5065000000000001
0.506
0.5075000000000001
0.507
0.507
0.5055000000000001
0.506
0.507
0.509
0.5095000000000001
0.509
0.509
0.509
0.5095000000000001
0.5095000000000001
0.511
0.511
0.511
0.5115000000000001
0.511
0.5115000000000001
0.5115000000000001
0.5125
0.512
0.511
0.5105000000000001
0.5115000000000001
0.514
0.5135
0.5115000000000001
0.5115000000000001
0.512
0.511
0.5105000000000001
0.511
0.5105000000000001
0.5105000000000001
0.51
0.5095000000000001
0.51
0.51
0.511
0.511
0.512
0.5125
0.5125
0.511
0.5115000000000001
0.5115000000000001
0.513
0.5145
0.512
0.512
0.5115000000000001
0.5125
0.512
0.512
0.512
0.512
0.5115000000000001
0.513
0.513
0.512
0.5115000000000001
0.5115000000000001
0.5125
0.512
0.5125
0.512
0.5125
0.513
0.513
0.5125
0.512
0.512
0.5125
0.514
0.5135
0.513
0.5125
0.513
0.5125
0.5125
0.5125
0.512
0.512
0.513
0.512
0.512
0.512
0.5115000000000001
0.512
0.512
0.5125
0.511
0.5105000000000001
0.511
0.5095000000000001
0.5095000000000001
0.508
0.5075000000000001
0.5085000000000001
0.5085000000000001
0.507
0.5075000000000001
0.506
0.509
0.5055000000000001
0.507
0.5065000000000001
0.506
0.5065000000000001
0.506
0.506
0.505
0.505
0.5045000000000001
0.5055000000000001
0.505
0.507
0.5065000000000001
0.504
0.503
0.5055000000000001
0.5045000000000001
0.5035000000000001
0.5045000000000001
0.5045000000000001
0.507
0.509
0.5065000000000001
0.508
0.509
0.509
0.5095000000000001
0.5105000000000001
0.5105000000000001
0.5115000000000001
0.5115000000000001
0.5095000000000001
0.511
0.5105000000000001
0.512
0.51
0.511
0.512
0.5115000000000001
0.512
0.5115000000000001
0.5125
0.512
0.512
0.5115000000000001
0.512
0.5125
0.5125
0.5115000000000001
0.5115000000000001
0.512
0.5125
0.512
0.5115000000000001
0.511
0.511
0.5095000000000001
0.51
0.5095000000000001
0.51
0.512
0.5115000000000001
0.5095000000000001
0.51
0.507
0.5085000000000001
0.51
0.507
0.5075000000000001
0.5075000000000001
0.509
0.5075000000000001
0.511
0.509
0.507
0.5105000000000001
0.5105000000000001
0.5085000000000001
0.508
0.5065000000000001
0.5085000000000001
0.5065000000000001
0.5085000000000001
0.5095000000000001
0.508
0.5095000000000001
0.5095000000000001
0.51
0.506
0.507
0.5065000000000001
0.5065000000000001
0.507
0.507
0.506
0.5065000000000001
0.5055000000000001
0.505
0.505
0.5055000000000001
0.5035000000000001
0.505
0.5045000000000001
0.5045000000000001
0.5025000000000001
0.502
0.503
0.504
0.5075000000000001
0.5075000000000001
0.509
0.5095000000000001
0.5085000000000001
0.5075000000000001
0.5095000000000001
0.5085000000000001
0.5055000000000001
0.5095000000000001
0.5085000000000001
0.5075000000000001
0.506
0.5085000000000001
0.509
0.506
0.507
0.5075000000000001
0.5085000000000001
0.5085000000000001
0.5055000000000001
0.5065000000000001
0.5075000000000001
0.5085000000000001
0.508
0.5085000000000001
0.5045000000000001
0.5095000000000001
0.507
0.5085000000000001
0.5035000000000001
0.508
0.506
0.5025000000000001
0.5025000000000001
0.5045000000000001
0.5045000000000001
0.5045000000000001
0.505
0.5045000000000001
0.5035000000000001
0.5035000000000001
0.506
0.5055000000000001
0.5065000000000001
0.5075000000000001
0.506
0.5045000000000001
0.5045000000000001
0.502
0.504
0.5005000000000001
0.5025000000000001
0.503
0.502
0.5025000000000001
0.504
0.5055000000000001
0.5035000000000001
0.505
0.5045000000000001
0.5075000000000001
0.5055000000000001
0.5065000000000001
0.5065000000000001
0.507
0.5085000000000001
0.5105000000000001
0.5115000000000001
0.509
0.5085000000000001
0.5085000000000001
0.5095000000000001
0.51
0.512
0.5115000000000001
0.511
0.511
0.5115000000000001
0.511
0.512
0.512
0.511
0.512
0.5125
0.5125
0.512
0.513
0.5125
0.5115000000000001
0.5125
0.512
0.5135
0.512
0.5125
0.5135
0.5125
0.512
0.5135
0.513
0.5135
0.514
0.5135
0.5135
0.513
0.513
0.5125
0.5135
0.5135
0.5155
0.513
0.513
0.5145
0.5125
0.512
0.5115000000000001
0.5125
0.5125
0.512
0.5125
0.5125
0.5135
0.5125
0.514
0.5135
0.5125
0.5125
0.5125
0.513
0.512
0.5125
0.512
0.5125
0.513
0.511
0.5125
0.511
0.5115000000000001
0.5115000000000001
0.512
0.512
0.511
0.511
0.511
0.5115000000000001
0.512
0.512
0.5115000000000001
0.5115000000000001
0.5115000000000001
0.512
0.512
0.5115000000000001
0.5115000000000001
0.5115000000000001
0.511
0.512
0.5115000000000001
0.5105000000000001
0.5105000000000001
0.511
0.511
0.511
0.511
0.511
0.5115000000000001
0.513
0.5145
0.5115000000000001
0.5125
0.5125
0.513
0.513
0.5125
0.5135
0.5125
0.512
0.5125
0.5125
0.512
0.512
0.512
0.513
0.513
0.5135
0.5125
0.5115000000000001
0.511
0.512
0.511
0.5105000000000001
0.511
0.511
0.5105000000000001
0.511
0.512
0.5125
0.5105000000000001
0.51
0.5095000000000001
0.51
0.509
0.5085000000000001
0.508
0.5085000000000001
0.5085000000000001
0.5075000000000001
0.5075000000000001
0.5065000000000001
0.5055000000000001
0.5035000000000001
0.506
0.5055000000000001
0.5045000000000001
0.5035000000000001
0.5035000000000001
0.503
0.503
0.5045000000000001
0.5045000000000001
0.502
0.503
0.5035000000000001
0.503
0.5055000000000001
0.505
0.505
0.506
0.508
0.509
0.505
0.5045000000000001
0.5095000000000001
0.507
0.5065000000000001
0.505
0.51
0.5055000000000001
0.5045000000000001
0.507
0.5075000000000001
0.5065000000000001
0.5065000000000001
0.5065000000000001
0.51
0.5085000000000001
0.51
0.509
0.5095000000000001
0.5075000000000001
0.5075000000000001
0.5095000000000001
0.5115000000000001
0.5085000000000001
0.509
0.5085000000000001
0.509
0.51
0.5115000000000001
0.508
0.509
0.509
0.5125
0.509
0.508
0.508
0.5105000000000001
0.5085000000000001
0.51
0.51
0.508
0.5105000000000001
0.51
0.5105000000000001
0.5075000000000001
0.5055000000000001
0.5035000000000001
0.5085000000000001
0.506
0.506
0.5075000000000001
0.506
0.505
0.503
0.5055000000000001
0.5055000000000001
0.5085000000000001
0.507
0.508
0.5085000000000001
0.5085000000000001
0.5105000000000001
0.5105000000000001
0.509
0.511
0.5065000000000001
0.5085000000000001
0.5065000000000001
0.505
0.506
0.508
0.506
0.505
0.5055000000000001
0.5065000000000001
0.5055000000000001
0.507
0.5075000000000001
0.5085000000000001
0.5075000000000001
0.5075000000000001
0.507
0.509
0.5035000000000001
0.5085000000000001
0.509
0.5065000000000001
0.506
0.506
0.507
0.505
0.505
0.5075000000000001
0.5075000000000001
0.5065000000000001
0.5075000000000001
0.5075000000000001
0.508
0.5085000000000001
0.5115000000000001
0.5095000000000001
0.509
0.51
0.5105000000000001
0.511
0.51
0.51
0.511
0.511
0.5095000000000001
0.5115000000000001
0.512
0.511
0.511
0.5085000000000001
0.5115000000000001
0.511
0.507
0.508
0.5055000000000001
0.5065000000000001
0.506
0.5085000000000001
0.505
0.5045000000000001
0.503
0.5045000000000001
0.505
0.505
0.505
0.5045000000000001
0.505
0.506
0.5055000000000001
0.5045000000000001
0.5075000000000001
0.5035000000000001
0.505
0.503
0.502
0.5035000000000001
0.5025000000000001
0.5025000000000001
0.5025000000000001
0.504
0.5035000000000001
0.504
0.5045000000000001
0.5055000000000001
0.5085000000000001
0.5075000000000001
0.5085000000000001
0.5095000000000001
0.5105000000000001
0.509
0.51
0.511
0.5095000000000001
0.5075000000000001
0.509
0.5095000000000001
0.508
0.5075000000000001
0.51
0.509
0.5095000000000001
0.5095000000000001
0.5095000000000001
0.5095000000000001
0.512
0.51
0.5085000000000001
0.5115000000000001
0.5105000000000001
0.5115000000000001
0.511
0.5105000000000001
0.5105000000000001
0.512
0.511
0.511
0.5115000000000001
0.5115000000000001
0.512
0.512
0.5125
0.512
0.512
0.5135
0.5135
0.5145
0.5135
0.5135
0.5135
0.5125
0.512
0.512
0.5125
0.5125
0.513
0.5125
0.5125
0.512
0.5125
0.513
0.5135
0.5105000000000001
0.509
0.5075000000000001
0.507
0.5075000000000001
0.5085000000000001
0.508
0.5085000000000001
0.509
0.51
0.5105000000000001
0.511
0.51
0.511
0.511
0.511
0.511
0.5105000000000001
0.509
0.5075000000000001
0.5065000000000001
0.5065000000000001
0.507
0.508
0.509
0.5095000000000001
0.5105000000000001
0.51
0.51
0.5135
0.5115000000000001
0.511
0.512
0.5115000000000001
0.511
0.512
0.5115000000000001
0.5115000000000001
0.511
0.5105000000000001
0.5115000000000001
0.5095000000000001
0.5115000000000001
0.5105000000000001
0.51
0.509
0.5085000000000001
0.5075000000000001
0.507
0.506
0.507
0.507
0.507
0.5075000000000001
0.508
0.509
0.508
0.5095000000000001
0.5085000000000001
0.5095000000000001
0.5095000000000001
0.5095000000000001
0.5095000000000001
0.5095000000000001
0.51
0.512
0.5095000000000001
0.509
0.509
0.5085000000000001
0.509
0.5095000000000001
0.508
0.5095000000000001
0.507
0.5095000000000001
0.5095000000000001
0.5095000000000001
0.511
0.5055000000000001
0.506
0.5055000000000001
0.506
0.503
0.5025000000000001
0.5065000000000001
0.504
0.509
0.5065000000000001
0.5055000000000001
0.504
0.505
0.5055000000000001
0.5035000000000001
0.5055000000000001
0.5065000000000001
0.506
0.505
0.5025000000000001
0.503
0.502
0.5035000000000001
0.503
0.504
0.505
0.505
0.5035000000000001
0.505
0.505
0.506
0.506
0.5035000000000001
0.507
0.506
0.5065000000000001
0.5065000000000001
0.5065000000000001
0.505
0.5065000000000001
0.5055000000000001
0.506
0.5085000000000001
0.506
0.504
0.5055000000000001
0.507
0.5075000000000001
0.5065000000000001
0.5085000000000001
0.5075000000000001
0.5055000000000001
0.5075000000000001
0.5045000000000001
0.5065000000000001
0.505
0.5045000000000001
0.5045000000000001
0.507
0.507
0.5065000000000001
0.5045000000000001
0.5075000000000001
0.5075000000000001
0.509
0.509
0.5085000000000001
0.5085000000000001
0.506
0.507
0.507
0.507
0.506
0.507
0.5085000000000001
0.507
0.511
0.5085000000000001
0.5095000000000001
0.506
0.5075000000000001
0.509
0.51
0.509
0.51
0.51
0.5105000000000001
0.511
0.509
0.509
0.5075000000000001
0.509
0.5085000000000001
0.5095000000000001
0.51
0.51
0.511
0.5105000000000001
0.511
0.5115000000000001
0.514
0.511
0.511
0.511
0.5115000000000001
0.511
0.5115000000000001
0.511
0.511
0.5115000000000001
0.511
0.5115000000000001
0.511
0.5115000000000001
0.511
0.511
0.5105000000000001
0.5125
0.5105000000000001
0.511
0.5115000000000001
0.512
0.5105000000000001
0.5105000000000001
0.5105000000000001
0.5095000000000001
0.5095000000000001
0.51
0.5095000000000001
0.51
0.5105000000000001
0.511
0.51
0.512
0.5105000000000001
0.511
0.5115000000000001
0.512
0.511
0.509
0.508
0.5065000000000001
0.5055000000000001
0.507
0.5095000000000001
0.5085000000000001
0.5075000000000001
0.5085000000000001
0.5085000000000001
0.5085000000000001
0.508
0.509
0.5075000000000001
0.508
0.507
0.507
0.5065000000000001
0.5055000000000001
0.5055000000000001
0.505
0.5045000000000001
0.505
0.507
0.5065000000000001
0.5035000000000001
0.5035000000000001
0.504
0.5035000000000001
0.5055000000000001
0.5045000000000001
0.505
0.5035000000000001
0.505
0.5035000000000001
0.5035000000000001
0.5035000000000001
0.5015000000000001
0.5015000000000001
0.5025000000000001
0.5035000000000001
0.504
0.5055000000000001
0.5065000000000001
0.5085000000000001
0.5085000000000001
0.509
0.509
0.509
0.5095000000000001
0.51
0.5095000000000001
0.5095000000000001
0.5115000000000001
0.511
0.511
0.51
0.511
0.512
0.51
0.5125
0.5125
0.511
0.5105000000000001
0.5095000000000001
0.5105000000000001
0.507
0.5095000000000001
0.5095000000000001
0.5085000000000001
0.5095000000000001
0.5115000000000001
0.509
0.5085000000000001
0.51
0.51
0.51
0.5105000000000001
0.511
0.5115000000000001
0.512
0.5125
0.511
0.512
0.5115000000000001
0.5125
0.512
0.511
0.5135
0.512
0.514
0.5125
0.5125
0.5105000000000001
0.511
0.5075000000000001
0.507
0.507
0.505
0.502
0.5045000000000001
0.5035000000000001
0.5055000000000001
0.5075000000000001
0.507
0.507
0.505
0.5095000000000001
0.508
0.507
0.5075000000000001
0.5065000000000001
0.5045000000000001
0.509
0.5075000000000001
0.5065000000000001
0.5065000000000001
0.507
0.506
0.505
0.505
0.505
0.505
0.5075000000000001
0.5085000000000001
0.5095000000000001
0.5075000000000001
0.5075000000000001
0.5095000000000001
0.5075000000000001
0.5075000000000001
0.511
0.5085000000000001
0.508
0.511
0.5095000000000001
0.5065000000000001
0.511
0.5115000000000001
0.5085000000000001
0.5085000000000001
0.509
0.5075000000000001
0.5085000000000001
0.5085000000000001
0.5085000000000001
0.5105000000000001
0.5075000000000001
0.5095000000000001
0.5075000000000001
0.507
0.5055000000000001
0.503
0.5065000000000001
0.507
0.507
0.508
0.5085000000000001
0.5085000000000001
0.509
0.506
0.5075000000000001
0.506
0.5065000000000001
0.506
0.5075000000000001
0.507
0.507
0.507
0.5055000000000001
0.506
0.508
0.5065000000000001
0.5075000000000001
0.506
0.5035000000000001
0.505
0.506
0.5035000000000001
0.4995
0.501
0.4995
0.5005000000000001
0.4995
0.4985
0.5005000000000001
0.5015000000000001
0.5035000000000001
0.501
0.5035000000000001
0.5025000000000001
0.5055000000000001
0.506
0.5055000000000001
0.506
0.5075000000000001
0.504
0.509
0.508
0.505
0.508
0.508
0.508
0.507
0.508
0.509
0.5115000000000001
0.5105000000000001
0.5105000000000001
0.5105000000000001
0.51
0.5095000000000001
0.511
0.5125
0.512
0.511
0.5115000000000001
0.5135
0.5105000000000001
0.5125
0.511
0.5085000000000001
0.5095000000000001
0.509
0.509
0.509
0.5095000000000001
0.5095000000000001
0.5135
0.5105000000000001
0.512
0.511
0.511
0.5115000000000001
0.511
0.5115000000000001
0.5115000000000001
0.5115000000000001
0.511
0.5115000000000001
0.511
0.5125
0.511
0.512
0.512
0.5125
0.5125
0.5125
0.5115000000000001
0.512
0.513
0.5125
0.512
0.5125
0.5125
0.5115000000000001
0.5125
0.512
0.5105000000000001
0.5105000000000001
0.5095000000000001
0.5065000000000001
0.508
0.505
0.504
0.503
0.5045000000000001
0.507
0.506
0.51
0.5085000000000001
0.51
0.511
0.51
0.51
0.5105000000000001
0.5105000000000001
0.511
0.511
0.5105000000000001
0.511
0.5115000000000001
0.512
0.5115000000000001
0.5115000000000001
0.511
0.5115000000000001
0.51
0.512
0.511
0.511
0.512
0.5115000000000001
0.5105000000000001
0.5115000000000001
0.5125
0.5115000000000001
0.512
0.5125
0.5115000000000001
0.5125
0.512
0.5115000000000001
0.512
0.5115000000000001
0.512
0.5125
0.5145
0.5105000000000001
0.511
0.512
0.513
0.5115000000000001
0.5125
0.511
0.5115000000000001
0.5125
0.5115000000000001
0.512
0.5115000000000001
0.511
0.511
0.5105000000000001
0.51
0.511
0.5105000000000001
0.5095000000000001
0.508
0.509
0.5085000000000001
0.5085000000000001
0.5075000000000001
0.5065000000000001
0.5055000000000001
0.507
0.5065000000000001
0.5075000000000001
0.5075000000000001
0.5075000000000001
0.5075000000000001
0.5065000000000001
0.506
0.506
0.5065000000000001
0.5055000000000001
0.5055000000000001
0.5065000000000001
0.506
0.5065000000000001
0.5055000000000001
0.5065000000000001
0.507
0.5065000000000001
0.507
0.5055000000000001
0.506
0.5055000000000001
0.5065000000000001
0.5075000000000001
0.5075000000000001
0.508
0.5085000000000001
0.5075000000000001
0.5075000000000001
0.5085000000000001
0.508
0.508
0.5095000000000001
0.5095000000000001
0.511
0.5075000000000001
0.5095000000000001
0.5095000000000001
0.5095000000000001
0.509
0.509
0.511
0.509
0.5085000000000001
0.508
0.5095000000000001
0.5115000000000001
0.508
0.5095000000000001
0.5095000000000001
0.5105000000000001
0.51
0.5095000000000001
0.508
0.5085000000000001
0.509
0.5085000000000001
0.5065000000000001
0.506
0.5045000000000001
0.5075000000000001
0.5035000000000001
0.507
0.5015000000000001
0.5035000000000001
0.5055000000000001
0.5065000000000001
0.5055000000000001
0.5085000000000001
0.5075000000000001
0.508
0.508
0.5055000000000001
0.508
0.5075000000000001
0.5065000000000001
0.509
0.51
0.508
0.509
0.5085000000000001
0.511
0.511
0.5095000000000001
0.5075000000000001
0.509
0.506
0.511
0.5085000000000001
0.5095000000000001
0.509
0.51
0.509
0.5085000000000001
0.5075000000000001
0.5085000000000001
0.51
0.5085000000000001
0.5075000000000001
0.5065000000000001
0.5085000000000001
0.509
0.5065000000000001
0.508
0.509
0.5075000000000001
0.5065000000000001
0.5095000000000001
0.509
0.51
0.5095000000000001
0.511
0.5075000000000001
0.5075000000000001
0.507
0.5025000000000001
0.5015000000000001
0.505
0.5055000000000001
0.505
0.5055000000000001
0.506
0.506
0.5075000000000001
0.5075000000000001
0.506
0.5075000000000001
0.506
0.5065000000000001
0.5065000000000001
0.5075000000000001
0.5045000000000001
0.505
0.5065000000000001
0.5065000000000001
0.5085000000000001
0.5055000000000001
0.507
0.505
0.5065000000000001
0.5065000000000001
0.507
0.5075000000000001
0.5085000000000001
0.506
0.5095000000000001
0.5065000000000001
0.506
0.5045000000000001
0.5045000000000001
0.503
0.5015000000000001
0.5035000000000001
0.505
0.5035000000000001
0.5025000000000001
0.5025000000000001
0.501
0.503
0.502
0.503
0.502
0.503
0.504
0.5035000000000001
0.507
0.5045000000000001
0.5065000000000001
0.508
0.5095000000000001
0.5075000000000001
0.5055000000000001
0.5065000000000001
0.5065000000000001
0.507
0.5075000000000001
0.5085000000000001
0.509
0.5095000000000001
0.5105000000000001
0.5115000000000001
0.5115000000000001
0.5115000000000001
0.5115000000000001
0.51
0.5105000000000001
0.51
0.511
0.5115000000000001
0.5125
0.5125
0.512
0.5125
0.513
0.5125
0.512
0.512
0.5115000000000001
0.512
0.5125
0.5125
0.512
0.5115000000000001
0.5115000000000001
0.5125
0.512
0.5115000000000001
0.5115000000000001
0.5135
0.5145
0.5125
0.513
0.51
0.5125
0.513
0.5085000000000001
0.509
0.5095000000000001
0.5095000000000001
0.51
0.5095000000000001
0.5105000000000001
0.5105000000000001
0.511
0.511
0.511
0.5115000000000001
0.511
0.5115000000000001
0.512
0.5105000000000001
0.5115000000000001
0.5105000000000001
0.512
0.5115000000000001
0.511
0.5135
0.5105000000000001
0.5125
0.5115000000000001
0.5115000000000001
0.5105000000000001
0.5125
0.5105000000000001
0.5105000000000001
0.5095000000000001
0.5095000000000001
0.51
0.5095000000000001
0.5105000000000001
0.5115000000000001
0.5105000000000001
0.512
0.511
0.5095000000000001
0.5095000000000001
0.5115000000000001
0.5115000000000001
0.511
0.511
0.511
0.5125
0.5095000000000001
0.5105000000000001
0.512
0.512
0.5125
0.5115000000000001
0.511
0.5115000000000001
0.512
0.5105000000000001
0.5115000000000001
0.5115000000000001
0.5105000000000001
0.5105000000000001
0.5105000000000001
0.5115000000000001
0.5105000000000001
0.5105000000000001
0.5105000000000001
0.511
0.5115000000000001
0.511
0.5115000000000001
0.5115000000000001
0.5135
0.5095000000000001
0.5115000000000001
0.5115000000000001
0.512
0.5105000000000001
0.5105000000000001
0.508
0.5095000000000001
0.509
0.508
0.507
0.507
0.507
0.5105000000000001
0.5075000000000001
0.5075000000000001
0.508
0.5075000000000001
0.507
0.506
0.5085000000000001
0.5065000000000001
0.5075000000000001
0.506
0.5055000000000001
0.505
0.506
0.506
0.507
0.506
0.505
0.504
0.504
0.5025000000000001
0.5035000000000001
0.5025000000000001
0.504
0.5045000000000001
0.504
0.5035000000000001
0.5035000000000001
0.5035000000000001
0.502
0.5045000000000001
0.5045000000000001
0.505
0.5035000000000001
0.5055000000000001
0.5025000000000001
0.5015000000000001
0.5025000000000001
0.5015000000000001
0.503
0.5035000000000001
0.504
0.505
0.5065000000000001
0.5075000000000001
0.5085000000000001
0.5125
0.5085000000000001
0.5105000000000001
0.509
0.509
0.5095000000000001
0.508
0.51
0.509
0.5095000000000001
0.5085000000000001
0.5085000000000001
0.509
0.5105000000000001
0.51
0.5105000000000001
0.509
0.5105000000000001
0.51
0.5095000000000001
0.5105000000000001
0.5095000000000001
0.5095000000000001
0.5095000000000001
0.5105000000000001
0.5095000000000001
0.511
0.509
0.509
0.51
0.51
0.5095000000000001
0.508
0.5065000000000001
0.5085000000000001
0.5075000000000001
0.5095000000000001
0.5075000000000001
0.508
0.506
0.5065000000000001
0.5055000000000001
0.5075000000000001
0.504
0.5055000000000001
0.5065000000000001
0.5075000000000001
0.5065000000000001
0.5065000000000001
0.5075000000000001
0.5065000000000001
0.5045000000000001
0.5075000000000001
0.5085000000000001
0.5075000000000001
0.5055000000000001
0.509
0.5075000000000001
0.507
0.5065000000000001
0.5075000000000001
0.5045000000000001
0.5065000000000001
0.507
0.508
0.5075000000000001
0.506
0.507
0.505
0.507
0.505
0.5085000000000001
0.5085000000000001
0.506
0.5055000000000001
0.5025000000000001
0.505
0.502
0.5055000000000001
0.5055000000000001
0.507
0.507
0.5065000000000001
0.5085000000000001
0.51
0.5095000000000001
0.5055000000000001
0.5065000000000001
0.509
0.5085000000000001
0.5055000000000001
0.5075000000000001
0.507
0.509
0.5065000000000001
0.507
0.508
0.5075000000000001
0.5075000000000001
0.509
0.5085000000000001
0.507
0.5095000000000001
0.51
0.508
0.5085000000000001
0.5095000000000001
0.508
0.5095000000000001
0.508
0.5095000000000001
0.5075000000000001
0.507
0.507
0.5075000000000001
0.5075000000000001
0.5065000000000001
0.5075000000000001
0.508
0.5045000000000001
0.5055000000000001
0.505
0.5055000000000001
0.505
0.5055000000000001
0.5045000000000001
0.5045000000000001
0.5045000000000001
0.5055000000000001
0.505
0.505
0.5045000000000001
0.5035000000000001
0.5025000000000001
0.5015000000000001
0.5015000000000001
0.5035000000000001
0.503
0.5045000000000001
0.5055000000000001
0.506
0.507
0.507
0.508
0.5075000000000001
0.5095000000000001
0.5115000000000001
0.511
0.5105000000000001
0.5085000000000001
0.51
0.51
0.5105000000000001
0.5105000000000001
0.511
0.511
0.512
0.511
0.5105000000000001
0.5115000000000001
0.512
0.512
0.511
0.512
0.5115000000000001
0.511
0.5135
0.5125
0.5125
0.513
0.5125
0.512
0.512
0.5125
0.5125
0.5125
0.512
0.512
0.5115000000000001
0.512
0.5115000000000001
0.5125
0.514
0.51
0.5115000000000001
0.5115000000000001
0.512
0.511
0.512
0.511
0.5115000000000001
0.5105000000000001
0.5115000000000001
0.5155
0.512
0.5105000000000001
0.5095000000000001
0.51
0.508
0.5105000000000001
0.509
0.509
0.5095000000000001
0.51
0.509
0.5115000000000001
0.51
0.5105000000000001
0.511
0.5115000000000001
0.5085000000000001
0.509
0.506
0.5095000000000001
0.5095000000000001
0.5095000000000001
0.5095000000000001
0.5095000000000001
0.51
0.5105000000000001
0.5105000000000001
0.5105000000000001
0.511
0.512
0.5105000000000001
0.511
0.5105000000000001
0.511
0.5095000000000001
0.51
0.5085000000000001
0.5085000000000001
0.5085000000000001
0.508
0.507
0.5075000000000001
0.5085000000000001
0.5095000000000001
0.5095000000000001
0.5105000000000001
0.5105000000000001
0.5095000000000001
0.512
0.5135
0.5095000000000001
0.511
0.511
0.511
0.5115000000000001
0.5115000000000001
0.511
0.5105000000000001
0.511
0.5105000000000001
0.5105000000000001
0.51
0.5095000000000001
0.51
0.509
0.5085000000000001
0.5115000000000001
0.5085000000000001
0.5095000000000001
0.5095000000000001
0.511
0.509
0.5095000000000001
0.5095000000000001
0.5095000000000001
0.5095000000000001
0.509
0.5085000000000001
0.5105000000000001
0.505
0.509
0.5035000000000001
0.5065000000000001
0.506
0.5025000000000001
0.504
0.5035000000000001
0.502
0.5035000000000001
0.5035000000000001
0.5055000000000001
0.5045000000000001
0.507
0.504
0.5045000000000001
0.5025000000000001
0.4995
0.502
0.4995
0.4995
0.4985
0.4995
0.4985
0.4985
0.498
0.4995
0.5015000000000001
0.501
0.502
0.4995
0.5005000000000001
0.4995
0.5045000000000001
0.501
0.507
0.506
0.506
0.506
0.5075000000000001
0.5105000000000001
0.5095000000000001
0.5085000000000001
0.5085000000000001
0.5085000000000001
0.507
0.506
0.506
0.504
0.506
0.508
0.5075000000000001
0.5075000000000001
0.5075000000000001
0.508
0.5045000000000001
0.507
0.5045000000000001
0.5085000000000001
0.5075000000000001
0.51
0.5095000000000001
0.509
0.509
0.5105000000000001
0.5065000000000001
0.5075000000000001
0.509
0.5075000000000001
0.5085000000000001
0.505
0.5035000000000001
0.505
0.5055000000000001
0.5035000000000001
0.5035000000000001
0.5055000000000001
0.506
0.506
0.507
0.5095000000000001
0.5075000000000001
0.5085000000000001
0.506
0.5065000000000001
0.507
0.506
0.5025000000000001
0.5055000000000001
0.5055000000000001
0.5045000000000001
0.5055000000000001
0.506
0.504
0.5065000000000001
0.507
0.5075000000000001
0.509
0.5085000000000001
0.509
0.5095000000000001
0.5085000000000001
0.5085000000000001
0.5095000000000001
0.5095000000000001
0.51
0.5105000000000001
0.5105000000000001
0.511
0.5115000000000001
0.5125
0.512
0.512
0.512
0.511
0.5105000000000001
0.5105000000000001
0.5105000000000001
0.5095000000000001
0.5105000000000001
0.511
0.5095000000000001
0.5115000000000001
0.511
0.5115000000000001
0.5115000000000001
0.5115000000000001
0.512
0.5115000000000001
0.512
0.511
0.511
0.5115000000000001
0.511
0.5125
0.5125
0.5155
0.5125
0.5105000000000001
0.5115000000000001
0.51
0.51
0.5105000000000001
0.5105000000000001
0.511
0.5115000000000001
0.5105000000000001
0.5115000000000001
0.511
0.51
0.5105000000000001
0.51
0.5095000000000001
0.51
0.509
0.51
0.5095000000000001
0.5085000000000001
0.5085000000000001
0.5065000000000001
0.507
0.5075000000000001
0.5055000000000001
0.5065000000000001
0.5065000000000001
0.506
0.506
0.506
0.5055000000000001
0.506
0.506
0.507
0.506
0.5055000000000001
0.5055000000000001
0.5045000000000001
0.5055000000000001
0.5065000000000001
0.5075000000000001
0.506
0.5085000000000001
0.5075000000000001
0.5065000000000001
0.5075000000000001
0.508
0.509
0.509
0.5105000000000001
0.5135
0.5095000000000001
0.5115000000000001
0.5115000000000001
0.512
0.512
0.5115000000000001
0.5115000000000001
0.5115000000000001
0.512
0.5125
0.512
0.5115000000000001
0.5115000000000001
0.511
0.5115000000000001
0.5115000000000001
0.5105000000000001
0.5115000000000001
0.5115000000000001
0.512
0.5125
0.5135
0.51
0.512
0.5125
0.513
0.5125
0.5125
0.512
0.512
0.5135
0.5135
0.5135
0.5125
0.5145
0.516
0.513
0.5135
0.513
0.5125
0.513
0.512
0.513
0.5135
0.5125
0.5125
0.5125
0.5125
0.5135
0.5135
0.511
0.5125
0.513
0.5125
0.512
0.5125
0.5115000000000001
0.511
0.511
0.5115000000000001
0.511
0.511
0.5125
0.5115000000000001
0.51
0.509
0.5105000000000001
0.5075000000000001
0.505
0.5035000000000001
0.503
0.5045000000000001
0.5035000000000001
0.5035000000000001
0.507
0.5025000000000001
0.504
0.502
0.5025000000000001
0.503
0.507
0.5065000000000001
0.508
0.5055000000000001
0.5085000000000001
0.507
0.507
0.5075000000000001
0.5095000000000001
0.5075000000000001
0.5085000000000001
0.5125
0.5095000000000001
0.512
0.5095000000000001
0.5105000000000001
0.5065000000000001
0.5055000000000001
0.508
0.5055000000000001
0.507
0.5065000000000001
0.508
0.5085000000000001
0.506
0.507
0.5065000000000001
0.508
0.508
0.5075000000000001
0.5075000000000001
0.5095000000000001
0.507
0.5075000000000001
0.507
0.508
0.5065000000000001
0.509
0.5085000000000001
0.509
0.51
0.5095000000000001
0.5075000000000001
0.5075000000000001
0.5095000000000001
0.5055000000000001
0.508
0.506
0.5065000000000001
0.5045000000000001
0.501
0.503
0.505
0.503
0.505
0.5045000000000001
0.502
0.502
0.5075000000000001
0.5055000000000001
0.503
0.5045000000000001
0.504
0.5
0.5005000000000001
0.4995
0.5025000000000001
0.5025000000000001
0.499
0.4955
0.4995
0.502
0.5025000000000001
0.5015000000000001
0.505
0.5085000000000001
0.507
0.505
0.5035000000000001
0.5055000000000001
0.5075000000000001
0.505
0.5055000000000001
0.5055000000000001
0.5055000000000001
0.506
0.5065000000000001
0.5075000000000001
0.507
0.5085000000000001
0.5075000000000001
0.5075000000000001
0.5085000000000001
0.509
0.5105000000000001
0.509
0.5085000000000001
0.5075000000000001
0.5085000000000001
0.5085000000000001
0.5095000000000001
0.509
0.5085000000000001
0.509
0.51
0.5105000000000001
0.5105000000000001
0.511
0.5105000000000001
0.511
0.5105000000000001
0.51
0.5105000000000001
0.5115000000000001
0.511
0.511
0.5115000000000001
0.5095000000000001
0.511
0.5115000000000001
0.5115000000000001
0.5095000000000001
0.5115000000000001
0.511
0.5105000000000001
0.5105000000000001
0.5105000000000001
0.511
0.5105000000000001
0.5105000000000001
0.511
0.5115000000000001
0.5115000000000001
0.511
0.5095000000000001
0.511
0.5115000000000001
0.5105000000000001
0.5135
0.509
0.508
0.5085000000000001
0.509
0.5095000000000001
0.5095000000000001
0.5105000000000001
0.511
0.5105000000000001
0.5115000000000001
0.51
0.511
0.5095000000000001
0.5115000000000001
0.5105000000000001
0.5105000000000001
0.512
0.5105000000000001
0.5105000000000001
0.511
0.5115000000000001
0.511
0.5105000000000001
0.5105000000000001
0.511
0.5105000000000001
0.5105000000000001
0.5105000000000001
0.511
0.511
0.5085000000000001
0.5095000000000001
0.5095000000000001
0.511
0.5105000000000001
0.5105000000000001
0.51
0.5105000000000001
0.51
0.5105000000000001
0.5125
0.511
0.5105000000000001
0.5115000000000001
0.5105000000000001
0.511
0.511
0.5115000000000001
0.511
0.5115000000000001
0.511
0.5115000000000001
0.512
0.5115000000000001
0.5115000000000001
0.5105000000000001
0.5105000000000001
0.5095000000000001
0.5085000000000001
0.509
0.5095000000000001
0.5085000000000001
0.5095000000000001
0.51
0.507
0.5075000000000001
0.5085000000000001
0.513
0.516
0.517
0.5155
0.5145
0.5135
0.5105000000000001
0.5095000000000001
0.508
0.5075000000000001
0.508
0.505
0.505
0.5045000000000001
0.5035000000000001
0.5045000000000001
0.505
0.505
0.5045000000000001
0.5055000000000001
0.5055000000000001
0.5065000000000001
0.5065000000000001
0.5065000000000001
0.509
0.5085000000000001
0.511
0.5115000000000001
0.5105000000000001
0.51
0.5105000000000001
0.5105000000000001
0.511
0.5105000000000001
0.5115000000000001
0.5105000000000001
0.5115000000000001
0.5105000000000001
0.509
0.5095000000000001
0.51
0.5095000000000001
0.509
0.5095000000000001
0.508
0.508
0.51
0.514
0.51
0.5095000000000001
0.51
0.5105000000000001
0.5095000000000001
0.5095000000000001
0.5075000000000001
0.509
0.5095000000000001
0.5095000000000001
0.51
0.5095000000000001
0.509
0.5085000000000001
0.5095000000000001
0.5095000000000001
0.509
0.5085000000000001
0.5085000000000001
0.507
0.507
0.5075000000000001
0.5085000000000001
0.5105000000000001
0.509
0.5095000000000001
0.509
0.5065000000000001
0.5055000000000001
0.5075000000000001
0.5055000000000001
0.5075000000000001
0.508
0.508
0.5095000000000001
0.507
0.5095000000000001
0.5075000000000001
0.506
0.5065000000000001
0.507
0.5065000000000001
0.505
0.5035000000000001
0.505
0.506
0.5065000000000001
0.503
0.504
0.504
0.5045000000000001
0.5085000000000001
0.506
0.5085000000000001
0.5065000000000001
0.5095000000000001
0.508
0.5035000000000001
0.5035000000000001
0.5025000000000001
0.5075000000000001
0.505
0.505
0.505
0.5065000000000001
0.505
0.5055000000000001
0.5075000000000001
0.5085000000000001
0.505
0.505
0.5065000000000001
0.5075000000000001
0.506
0.5075000000000001
0.507
0.509
0.5065000000000001
0.5065000000000001
0.5055000000000001
0.502
0.503
0.503
0.5045000000000001
0.505
0.503
0.5055000000000001
0.507
0.505
0.5065000000000001
0.5095000000000001
0.5035000000000001
0.505
0.507
0.5045000000000001
0.5055000000000001
0.5045000000000001
0.502
0.503
0.5025000000000001
0.5035000000000001
0.503
0.5015000000000001
0.503
0.5035000000000001
0.502
0.5025000000000001
0.5045000000000001
0.504
0.504
0.5035000000000001
0.503
0.503
0.5025000000000001
0.5025000000000001
0.5035000000000001
0.504
0.5045000000000001
0.5065000000000001
0.5075000000000001
0.5075000000000001
0.5065000000000001
0.506
0.506
0.5075000000000001
0.5085000000000001
0.5095000000000001
0.51
0.509
0.5095000000000001
0.511
0.5105000000000001
0.5105000000000001
0.5115000000000001
0.5105000000000001
0.51
0.51
0.5095000000000001
0.51
0.509
0.51
0.511
0.513
0.509
0.5115000000000001
0.511
0.511
0.5115000000000001
0.511
0.511
0.51
0.51
0.509
0.5095000000000001
0.51
0.51
0.5105000000000001
0.5105000000000001
0.51
0.5105000000000001
0.511
0.5095000000000001
0.5105000000000001
0.51
0.5115000000000001
0.5125
0.5105000000000001
0.5105000000000001
0.5105000000000001
0.51
0.5095000000000001
0.51
0.5095000000000001
0.5095000000000001
0.5095000000000001
0.51
0.5095000000000001
0.5105000000000001
0.51
0.5105000000000001
0.5105000000000001
0.511
0.51
0.5105000000000001
0.511
0.5105000000000001
0.5105000000000001
0.5105000000000001
0.511
0.51
0.511
0.511
0.511
0.5105000000000001
0.5105000000000001
0.51
0.5095000000000001
0.5095000000000001
0.5095000000000001
0.51
0.511
0.51
0.5095000000000001
0.5105000000000001
0.5135
0.5115000000000001
0.51
0.512
0.5075000000000001
0.5065000000000001
0.5095000000000001
0.5105000000000001
0.506
0.5065000000000001
0.5035000000000001
0.506
0.506
0.505
0.5095000000000001
0.506
0.5065000000000001
0.5075000000000001
0.507
0.509
0.5095000000000001
0.51
0.5095000000000001
0.5095000000000001
0.51
0.51
0.51
0.5105000000000001
0.5095000000000001
0.5125
0.5115000000000001
0.5105000000000001
0.51
0.5105000000000001
0.5095000000000001
0.51
0.509
0.5085000000000001
0.5105000000000001
0.5105000000000001
0.51
0.5105000000000001
0.5095000000000001
0.511
0.511
0.5105000000000001
0.5105000000000001
0.5105000000000001
0.5105000000000001
0.51
0.509
0.5085000000000001
0.5075000000000001
0.506
0.506
0.507
0.5055000000000001
0.507
0.506
0.506
0.5055000000000001
0.5055000000000001
0.506
0.5055000000000001
0.506
0.5055000000000001
0.5055000000000001
0.507
0.505
0.505
0.5045000000000001
0.505
0.504
0.5055000000000001
0.503
0.5025000000000001
0.5015000000000001
0.503
0.505
0.5035000000000001
0.5045000000000001
0.506
0.5035000000000001
0.5045000000000001
0.508
0.508
0.508
0.5075000000000001
0.509
0.5105000000000001
0.508
0.508
0.5085000000000001
0.505
0.5035000000000001
0.5055000000000001
0.5045000000000001
0.5055000000000001
0.5075000000000001
0.5065000000000001
0.5075000000000001
0.5075000000000001
0.509
0.5095000000000001
0.509
0.51
0.509
0.5095000000000001
0.5095000000000001
0.511
0.5095000000000001
0.51
0.509
0.51
0.5095000000000001
0.5105000000000001
0.5095000000000001
0.512
0.5075000000000001
0.507
0.5075000000000001
0.5085000000000001
0.508
0.5065000000000001
0.507
0.508
0.5065000000000001
0.507
0.5055000000000001
0.5065000000000001
0.5075000000000001
0.5085000000000001
0.5105000000000001
0.509
0.5085000000000001
0.5115000000000001
0.5095000000000001
0.5075000000000001
0.5065000000000001
0.507
0.5055000000000001
0.508
0.505
0.5025000000000001
0.5085000000000001
0.5055000000000001
0.5065000000000001
0.5045000000000001
0.5065000000000001
0.5065000000000001
0.5075000000000001
0.507
0.507
0.506
0.5085000000000001
0.5085000000000001
0.507
0.509
0.506
0.5065000000000001
0.5075000000000001
0.5085000000000001
0.5095000000000001
0.507
0.5065000000000001
0.5085000000000001
0.5085000000000001
0.5075000000000001
0.5035000000000001
0.5055000000000001
0.5035000000000001
0.5025000000000001
0.5025000000000001
0.5025000000000001
0.5035000000000001
0.5055000000000001
0.5075000000000001
0.507
0.508
0.5095000000000001
0.5085000000000001
0.509
0.5105000000000001
0.5095000000000001
0.512
0.5115000000000001
0.509
0.5095000000000001
0.509
0.509
0.5105000000000001
0.5115000000000001
0.512
0.5105000000000001
0.5095000000000001
0.51
0.5095000000000001
0.5105000000000001
0.5085000000000001
0.5095000000000001
0.509
0.509
0.508
0.5075000000000001
0.5075000000000001
0.5075000000000001
0.5065000000000001
0.5065000000000001
0.505
0.5055000000000001
0.5055000000000001
0.506
0.506
0.507
0.5065000000000001
0.5065000000000001
0.506
0.506
0.506
0.5085000000000001
0.506
0.5065000000000001
0.506
0.506
0.5065000000000001
0.507
0.507
0.508
0.506
0.5075000000000001
0.5075000000000001
0.5075000000000001
0.507
0.5075000000000001
0.509
0.509
0.511
0.51
0.511
0.5105000000000001
0.5105000000000001
0.5115000000000001
0.5115000000000001
0.511
0.5115000000000001
0.5115000000000001
0.511
0.511
0.5115000000000001
0.511
0.512
0.511
0.5115000000000001
0.5125
0.512
0.5125
0.512
0.5115000000000001
0.512
0.512
0.5125
0.512
0.513
0.5125
0.512
0.512
0.513
0.512
0.5125
0.5125
0.512
0.5115000000000001
0.511
0.5105000000000001
0.5115000000000001
0.511
0.512
0.511
0.5115000000000001
0.5125
0.5115000000000001
0.5125
0.5115000000000001
0.5115000000000001
0.5115000000000001
0.512
0.5135
0.51
0.5115000000000001
0.512
0.512
0.512
0.511
0.511
0.5115000000000001
0.5115000000000001
0.5125
0.512
0.512
0.511
0.512
0.511
0.5125
0.5115000000000001
0.512
0.513
0.5125
0.5105000000000001
0.511
0.511
0.511
0.511
0.5115000000000001
0.5105000000000001
0.5105000000000001
0.51
0.509
0.5085000000000001
0.5085000000000001
0.51
0.5095000000000001
0.508
0.51
0.508
0.508
0.5075000000000001
0.5045000000000001
0.5035000000000001
0.5055000000000001
0.5035000000000001
0.5035000000000001
0.504
0.506
0.5065000000000001
0.505
0.509
0.5085000000000001
0.5105000000000001
0.5075000000000001
0.5115000000000001
0.5095000000000001
0.5035000000000001
0.5085000000000001
0.5085000000000001
0.5075000000000001
0.504
0.507
0.5085000000000001
0.506
0.5075000000000001
0.5065000000000001
0.507
0.5075000000000001
0.506
0.5085000000000001
0.507
0.507
0.507
0.505
0.5045000000000001
0.507
0.505
0.507
0.5055000000000001
0.5105000000000001
0.5055000000000001
0.508
0.5055000000000001
0.507
0.5045000000000001
0.505
0.5035000000000001
0.5035000000000001
0.5065000000000001
0.507
0.5045000000000001
0.504
0.5035000000000001
0.5025000000000001
0.503
0.5015000000000001
0.504
0.505
0.5035000000000001
0.5005000000000001
0.5045000000000001
0.5
0.502
0.499
0.499
0.5
0.5025000000000001
0.5025000000000001
0.5015000000000001
0.502
0.5035000000000001
0.504
0.5045000000000001
0.505
0.5105000000000001
0.507
0.509
0.506
0.506
0.5055000000000001
0.5045000000000001
0.5045000000000001
0.507
0.5055000000000001
0.5075000000000001
0.503
0.5065000000000001
0.5055000000000001
0.5085000000000001
0.5085000000000001
0.506
0.505
0.5035000000000001
0.5065000000000001
0.5055000000000001
0.5035000000000001
0.5065000000000001
0.504
0.5035000000000001
0.505
0.5075000000000001
0.5065000000000001
0.508
0.508
0.5095000000000001
0.509
0.507
0.5065000000000001
0.508
0.5065000000000001
0.507
0.5065000000000001
0.5065000000000001
0.5075000000000001
0.5075000000000001
0.5085000000000001
0.508
0.507
0.5085000000000001
0.5095000000000001
0.5105000000000001
0.5105000000000001
0.5085000000000001
0.5105000000000001
0.51
0.5095000000000001
0.511
0.5105000000000001
0.5095000000000001
0.512
0.509
0.509
0.5095000000000001
0.51
0.5105000000000001
0.5105000000000001
0.51
0.5105000000000001
0.5125
0.511
0.511
0.51
0.5095000000000001
0.51
0.5105000000000001
0.5105000000000001
0.5105000000000001
0.51
0.5095000000000001
0.5105000000000001
0.5105000000000001
0.5115000000000001
0.511
0.511
0.5105000000000001
0.511
0.511
0.5105000000000001
0.511
0.51
0.5095000000000001
0.5095000000000001
0.511
0.5095000000000001
0.51
0.5085000000000001
0.5105000000000001
0.5135
0.51
0.5075000000000001
0.508
0.5095000000000001
0.51
0.5095000000000001
0.511
0.5105000000000001
0.512
0.511
0.5105000000000001
0.511
0.5105000000000001
0.511
0.511
0.511
0.5095000000000001
0.5105000000000001
0.5105000000000001
0.5095000000000001
0.5085000000000001
0.5095000000000001
0.5075000000000001
0.508
0.5075000000000001
0.5075000000000001
0.5075000000000001
0.5075000000000001
0.5075000000000001
0.5075000000000001
0.5065000000000001
0.5085000000000001
0.509
0.5095000000000001
0.509
0.5085000000000001
0.508
0.507
0.5075000000000001
0.506
0.5055000000000001
0.505
0.5045000000000001
0.5045000000000001
0.5035000000000001
0.5025000000000001
0.503
0.5035000000000001
0.504
0.5045000000000001
0.5055000000000001
0.505
0.506
0.5055000000000001
0.5105000000000001
0.5085000000000001
0.5085000000000001
0.511
0.5095000000000001
0.5095000000000001
0.51
0.51
0.5095000000000001
0.5115000000000001
0.5105000000000001
0.511
0.511
0.511
0.5105000000000001
0.511
0.511
0.511
0.5115000000000001
0.512
0.512
0.511
0.511
0.5115000000000001
0.511
0.511
0.511
0.5105000000000001
0.5105000000000001
0.511
0.512
0.5105000000000001
0.512
0.5115000000000001
0.512
0.5115000000000001
0.51
0.5105000000000001
0.509
0.5095000000000001
0.509
0.5095000000000001
0.5105000000000001
0.51
0.51
0.511
0.51
0.5095000000000001
0.511
0.5095000000000001
0.51
0.511
0.5095000000000001
0.5075000000000001
0.508
0.5085000000000001
0.5085000000000001
0.509
0.5105000000000001
0.5085000000000001
0.51
0.5085000000000001
0.508
0.507
0.5075000000000001
0.5055000000000001
0.5085000000000001
0.5075000000000001
0.5085000000000001
0.507
0.5085000000000001
0.5075000000000001
0.5075000000000001
0.509
0.5075000000000001
0.5085000000000001
0.511
0.51
0.5085000000000001
0.51
0.5105000000000001
0.509
0.5075000000000001
0.505
0.508
0.507
0.5065000000000001
0.502
0.5035000000000001
0.5065000000000001
0.5035000000000001
0.505
0.504
0.5045000000000001
0.5055000000000001
0.5065000000000001
0.5075000000000001
0.5085000000000001
0.509
0.5065000000000001
0.5075000000000001
0.506
0.51
0.5045000000000001
0.5055000000000001
0.5075000000000001
0.509
0.5085000000000001
0.509
0.507
0.5075000000000001
0.5065000000000001
0.5025000000000001
0.504
0.5045000000000001
0.51
0.5055000000000001
0.505
0.507
0.5065000000000001
0.5045000000000001
0.5055000000000001
0.5045000000000001
0.5035000000000001
0.503
0.498
0.501
0.497
0.4995
0.4995
0.5015000000000001
0.5005000000000001
0.5005000000000001
0.502
0.5035000000000001
0.5005000000000001
0.5035000000000001
0.5015000000000001
0.503
0.5035000000000001
0.5015000000000001
0.503
0.4995
0.501
0.503
0.506
0.5045000000000001
0.5035000000000001
0.5055000000000001
0.5055000000000001
0.507
0.507
0.5065000000000001
0.507
0.5095000000000001
0.5095000000000001
0.5085000000000001
0.506
0.508
0.509
0.5085000000000001
0.509
0.509
0.5095000000000001
0.51
0.51
0.511
0.51
0.5115000000000001
0.512
0.5115000000000001
0.5115000000000001
0.5115000000000001
0.511
0.511
0.511
0.5135
0.5085000000000001
0.512
0.5125
0.5115000000000001
0.5125
0.512
0.5125
0.513
0.5125
0.5125
0.5125
0.5125
0.5125
0.5125
0.5125
0.5135
0.5135
0.512
0.5125
0.512
0.5115000000000001
0.5115000000000001
0.5115000000000001
0.5125
0.5125
0.5115000000000001
0.5115000000000001
0.511
0.5125
0.512
0.5115000000000001
0.512
0.5115000000000001
0.5105000000000001
0.5105000000000001
0.5115000000000001
0.5105000000000001
0.5105000000000001
0.5105000000000001
0.5105000000000001
0.5125
0.5075000000000001
0.5105000000000001
0.5105000000000001
0.5095000000000001
0.5085000000000001
0.5075000000000001
0.506
0.506
0.506
0.5075000000000001
0.5085000000000001
0.509
0.51
0.51
0.51
0.5115000000000001
0.5115000000000001
0.511
0.5105000000000001
0.511
0.5105000000000001
0.5125
0.511
0.5095000000000001
0.51
0.5095000000000001
0.5105000000000001
0.5125
0.5105000000000001
0.5105000000000001
0.509
0.5105000000000001
0.511
0.51
0.509
0.5125
0.5115000000000001
0.5065000000000001
0.51
0.508
0.5065000000000001
0.507
0.5075000000000001
0.5075000000000001
0.5065000000000001
0.507
0.506
0.505
0.5065000000000001
0.5055000000000001
0.506
0.504
0.5055000000000001
0.504
0.503
0.503
0.5055000000000001
0.505
0.502
0.503
0.503
0.504
0.5025000000000001
0.5045000000000001
0.502
0.503
0.5035000000000001
0.504
0.5055000000000001
0.505
0.5055000000000001
0.5055000000000001
0.5055000000000001
0.506
0.506
0.5075000000000001
0.507
0.508
0.5075000000000001
0.5075000000000001
0.5075000000000001
0.5055000000000001
0.5075000000000001
0.5075000000000001
0.5055000000000001
0.503
0.5
0.501
0.5005000000000001
0.5015000000000001
0.501
0.5
0.4995
0.499
0.499
0.5005000000000001
0.5
0.5025000000000001
0.504
0.506
0.506
0.506
0.5055000000000001
0.5075000000000001
0.508
0.506
0.504
0.5045000000000001
0.5045000000000001
0.5055000000000001
0.5035000000000001
0.5065000000000001
0.5035000000000001
0.509
0.5065000000000001
0.5075000000000001
0.5075000000000001
0.509
0.5095000000000001
0.509
0.508
0.509
0.5085000000000001
0.5095000000000001
0.508
0.51
0.5105000000000001
0.5095000000000001
0.5125
0.5085000000000001
0.511
0.5085000000000001
0.5085000000000001
0.5085000000000001
0.5095000000000001
0.5105000000000001
0.512
0.5075000000000001
0.5095000000000001
0.509
0.51
0.508
0.5075000000000001
0.509
0.5075000000000001
0.5085000000000001
0.5095000000000001
0.506
0.51
0.508
0.5095000000000001
0.509
0.507
0.5065000000000001
0.5085000000000001
0.505
0.5075000000000001
0.5085000000000001
0.508
0.5085000000000001
0.507
0.5065000000000001
0.508
0.508
0.507
0.51
0.5105000000000001
0.508
0.508
0.5085000000000001
0.507
0.5115000000000001
0.5065000000000001
0.509
0.509
0.504
0.505
0.5055000000000001
0.507
0.5065000000000001
0.5075000000000001
0.5075000000000001
0.5095000000000001
0.5085000000000001
0.509
0.5085000000000001
0.51
0.5115000000000001
0.509
0.508
0.508
0.5115000000000001
0.5095000000000001
0.5085000000000001
0.508
0.505
0.5095000000000001
0.509
0.5075000000000001
0.5095000000000001
0.5075000000000001
0.5085000000000001
0.5085000000000001
0.5075000000000001
0.511
0.5105000000000001
0.511
0.511
0.511
0.511
0.5105000000000001
0.5095000000000001
0.5105000000000001
0.5105000000000001
0.51
0.507
0.5075000000000001
0.5085000000000001
0.507
0.507
0.506
0.5055000000000001
0.506
0.5055000000000001
0.5065000000000001
0.506
0.5065000000000001
0.506
0.5065000000000001
0.506
0.506
0.506
0.506
0.5055000000000001
0.5045000000000001
0.5035000000000001
0.5035000000000001
0.5035000000000001
0.5045000000000001
0.5055000000000001
0.505
0.5065000000000001
0.5065000000000001
0.5065000000000001
0.506
0.5075000000000001
0.507
0.5075000000000001
0.508
0.5095000000000001
0.5105000000000001
0.511
0.511
0.5105000000000001
0.5115000000000001
0.512
0.5115000000000001
0.511
0.511
0.5115000000000001
0.511
0.51
0.5105000000000001
0.51
0.5105000000000001
0.5105000000000001
0.5115000000000001
0.5115000000000001
0.5105000000000001
0.51
0.5115000000000001
0.51
0.51
0.5125
0.511
0.511
0.512
0.5125
0.511
0.511
0.511
0.511
0.512
0.512
0.512
0.511
0.511
0.5115000000000001
0.5115000000000001
0.5125
0.512
0.513
0.5115000000000001
0.5115000000000001
0.511
0.511
0.5105000000000001
0.511
0.5115000000000001
0.5105000000000001
0.5115000000000001
0.5115000000000001
0.5115000000000001
0.5105000000000001
0.5105000000000001
0.51
0.5105000000000001
0.511
0.51
0.5105000000000001
0.511
0.5105000000000001
0.512
0.5135
0.513
0.5135
0.5125
0.5125
0.5105000000000001
0.512
0.5115000000000001
0.5115000000000001
0.5115000000000001
0.5115000000000001
0.5125
0.5115000000000001
0.5115000000000001
0.5115000000000001
0.5115000000000001
0.511
0.5105000000000001
0.511
0.511
0.5115000000000001
0.5115000000000001
0.5115000000000001
0.5145
0.51
0.511
0.512
0.5105000000000001
0.5115000000000001
0.512
0.5115000000000001
0.511
0.511
0.5105000000000001
0.5115000000000001
0.5105000000000001
0.5105000000000001
0.5095000000000001
0.511
0.5105000000000001
0.5105000000000001
0.5095000000000001
0.5085000000000001
0.5095000000000001
0.508
0.5085000000000001
0.5085000000000001
0.509
0.51
0.51
0.51
0.5095000000000001
0.5095000000000001
0.5095000000000001
0.5095000000000001
0.509
0.5085000000000001
0.509
0.5085000000000001
0.5115000000000001
0.5085000000000001
0.5095000000000001
0.5085000000000001
0.512
0.507
0.51
0.5085000000000001
0.5065000000000001
0.508
0.5075000000000001
0.507
0.504
0.505
0.505
0.5025000000000001
0.504
0.502
0.505
0.5035000000000001
0.5025000000000001
0.5
0.502
0.499
0.499
0.4985
0.498
0.4975
0.4965
0.4995
0.4975
0.4985
0.498
0.499
0.4985
0.4995
0.501
0.4995
0.5005000000000001
0.504
0.5045000000000001
0.505
0.5075000000000001
0.505
0.5065000000000001
0.507
0.5065000000000001
0.5055000000000001
0.5075000000000001
0.507
0.5065000000000001
0.5085000000000001
0.5065000000000001
0.5055000000000001
0.505
0.5065000000000001
0.5065000000000001
0.5055000000000001
0.5065000000000001
0.5085000000000001
0.509
0.506
0.508
0.5085000000000001
0.507
0.5075000000000001
0.5055000000000001
0.507
0.508
0.506
0.5085000000000001
0.506
0.5055000000000001
0.508
0.5065000000000001
0.5085000000000001
0.5085000000000001
0.5075000000000001
0.5075000000000001
0.5105000000000001
0.5105000000000001
0.5095000000000001
0.509
0.5065000000000001
0.507
0.5055000000000001
0.5045000000000001
0.5015000000000001
0.503
0.505
0.5055000000000001
0.5055000000000001
0.508
0.5085000000000001
0.5085000000000001
0.508
0.5095000000000001
0.5075000000000001
0.508
0.5065000000000001
0.507
0.5075000000000001
0.507
0.5085000000000001
0.505
0.5065000000000001
0.5065000000000001
0.5085000000000001
0.5075000000000001
0.5085000000000001
0.5095000000000001
0.509
0.509
0.5085000000000001
0.509
0.509
0.5095000000000001
0.513
0.5095000000000001
0.51
0.511
0.5115000000000001
0.508
0.5095000000000001
0.5105000000000001
0.5095000000000001
0.5095000000000001
0.5095000000000001
0.51
0.5095000000000001
0.51
0.51
0.51
0.5105000000000001
0.5105000000000001
0.5115000000000001
0.5115000000000001
0.511
0.511
0.5105000000000001
0.5105000000000001
0.511
0.5115000000000001
0.5105000000000001
0.513
0.5135
0.5095000000000001
0.5125
0.512
0.5115000000000001
0.512
0.511
0.512
0.5115000000000001
0.511
0.511
0.5115000000000001
0.5095000000000001
0.509
0.51
0.5095000000000001
0.5095000000000001
0.5105000000000001
0.5035000000000001
0.5045000000000001
0.5045000000000001
0.509
0.5095000000000001
0.5105000000000001
0.509
0.5075000000000001
0.5085000000000001
0.5075000000000001
0.5075000000000001
0.507
0.5065000000000001
0.5055000000000001
0.5045000000000001
0.5045000000000001
0.5035000000000001
0.504
0.5045000000000001
0.5045000000000001
0.5055000000000001
0.506
0.5075000000000001
0.5075000000000001
0.5085000000000001
0.5075000000000001
0.5075000000000001
0.5075000000000001
0.5095000000000001
0.51
0.5085000000000001
0.5105000000000001
0.5095000000000001
0.5105000000000001
0.5105000000000001
0.5105000000000001
0.51
0.5105000000000001
0.511
0.5105000000000001
0.511
0.5115000000000001
0.5115000000000001
0.5115000000000001
0.5105000000000001
0.511
0.511
0.5105000000000001
0.5115000000000001
0.5105000000000001
0.5115000000000001
0.5105000000000001
0.509
0.508
0.5065000000000001
0.5055000000000001
0.505
0.507
0.507
0.5075000000000001
0.509
0.5095000000000001
0.51
0.5105000000000001
0.5105000000000001
0.51
0.5105000000000001
0.5105000000000001
0.5105000000000001
0.512
0.512
0.511
0.511
0.511
0.512
0.5125
0.5125
0.5115000000000001
0.5115000000000001
0.512
0.5125
0.512
0.512
0.512
0.512
0.5105000000000001
0.5115000000000001
0.5105000000000001
0.5115000000000001
0.511
0.51
0.5085000000000001
0.509
0.5095000000000001
0.511
0.509
0.5085000000000001
0.5075000000000001
0.5075000000000001
0.5075000000000001
0.505
0.5065000000000001
0.5065000000000001
0.506
0.5085000000000001
0.509
0.5085000000000001
0.508
0.5075000000000001
0.5095000000000001
0.508
0.51
0.5085000000000001
0.508
0.5075000000000001
0.5075000000000001
0.5085000000000001
0.5085000000000001
0.5075000000000001
0.5095000000000001
0.5085000000000001
0.51
0.5075000000000001
0.5105000000000001
0.5075000000000001
0.509
0.511
0.5095000000000001
0.513
0.509
0.5105000000000001
0.5105000000000001
0.509
0.51
0.5085000000000001
0.511
0.509
0.5065000000000001
0.509
0.507
0.5085000000000001
0.5085000000000001
0.5075000000000001
0.5085000000000001
0.509
0.507
0.5085000000000001
0.5065000000000001
0.5085000000000001
0.5065000000000001
0.508
0.5055000000000001
0.5055000000000001
0.507
0.506
0.504
0.504
0.5005000000000001
0.5035000000000001
0.5035000000000001
0.5025000000000001
0.502
0.5025000000000001
0.502
0.504
0.498
0.502
0.498
0.5015000000000001
0.4995
0.499
0.499
0.5
0.502
0.502
0.5025000000000001
0.5015000000000001
0.504
0.5035000000000001
0.5045000000000001
0.5045000000000001
0.5055000000000001
0.507
0.5085000000000001
0.5075000000000001
0.5055000000000001
0.5075000000000001
0.5075000000000001
0.5075000000000001
0.5075000000000001
0.506
0.507
0.505
0.5075000000000001
0.508
0.508
0.5095000000000001
0.5095000000000001
0.5095000000000001
0.51
0.5085000000000001
0.5095000000000001
0.51
0.5105000000000001
0.5135
0.511
0.511
0.5115000000000001
0.5115000000000001
0.5115000000000001
0.5115000000000001
0.5115000000000001
0.511
0.5115000000000001
0.5105000000000001
0.5115000000000001
0.511
0.5105000000000001
0.5115000000000001
0.5115000000000001
0.511
0.5095000000000001
0.5115000000000001
0.5115000000000001
0.5125
0.5115000000000001
0.5105000000000001
0.511
0.5115000000000001
0.5115000000000001
0.511
0.5105000000000001
0.511
0.511
0.511
0.511
0.5105000000000001
0.5115000000000001
0.5115000000000001
0.5115000000000001
0.512
0.5115000000000001
0.5115000000000001
0.511
0.5105000000000001
0.511
0.5105000000000001
0.512
0.5115000000000001
0.5105000000000001
0.5095000000000001
0.511
0.51
0.512
0.5125
0.5095000000000001
0.511
0.511
0.5105000000000001
0.5105000000000001
0.5115000000000001
0.512
0.511
0.5105000000000001
0.511
0.5105000000000001
0.511
0.5105000000000001
0.511
0.5105000000000001
0.5115000000000001
0.5115000000000001
0.5105000000000001
0.5105000000000001
0.51
0.5105000000000001
0.5105000000000001
0.5105000000000001
0.514
0.514
0.5115000000000001
0.511
0.5125
0.511
0.51
0.509
0.5095000000000001
0.5095000000000001
0.51
0.51
0.5095000000000001
0.509
0.511
0.5115000000000001
0.51
0.5105000000000001
0.5095000000000001
0.5085000000000001
0.5085000000000001
0.5085000000000001
0.5085000000000001
0.5095000000000001
0.5095000000000001
0.5085000000000001
0.5065000000000001
0.507
0.5075000000000001
0.5075000000000001
0.507
0.508
0.508
0.508
0.508
0.508
0.5075000000000001
0.5075000000000001
0.5075000000000001
0.508
0.5075000000000001
0.5095000000000001
0.507
0.5065000000000001
0.506
0.5055000000000001
0.506
0.5065000000000001
0.5035000000000001
0.5065000000000001
0.505
0.499
0.503
0.5
0.5025000000000001
0.5035000000000001
0.505
0.506
0.5055000000000001
0.507
0.5065000000000001
0.508
0.5075000000000001
0.5095000000000001
0.509
0.5095000000000001
0.51
0.5095000000000001
0.5105000000000001
0.5105000000000001
0.5105000000000001
0.5095000000000001
0.51
0.5105000000000001
0.5085000000000001
0.5095000000000001
0.508
0.507
0.506
0.506
0.506
0.507
0.508
0.5065000000000001
0.506
0.506
0.509
0.505
0.5055000000000001
0.5085000000000001
0.5075000000000001
0.507
0.5075000000000001
0.5075000000000001
0.5085000000000001
0.507
0.506
0.5075000000000001
0.5075000000000001
0.5075000000000001
0.508
0.5085000000000001
0.5075000000000001
0.5085000000000001
0.5085000000000001
0.509
0.5085000000000001
0.5085000000000001
0.5095000000000001
0.509
0.5085000000000001
0.5095000000000001
0.5075000000000001
0.5075000000000001
0.5085000000000001
0.5075000000000001
0.5075000000000001
0.508
0.5105000000000001
0.508
0.5085000000000001
0.51
0.509
0.509
0.509
0.508
0.5085000000000001
0.508
0.5085000000000001
0.5095000000000001
0.509
0.5095000000000001
0.51
0.5085000000000001
0.5085000000000001
0.505
0.5055000000000001
0.5035000000000001
0.5015000000000001
0.5045000000000001
0.5045000000000001
0.5035000000000001
0.505
0.5035000000000001
0.503
0.503
0.502
0.502
0.502
0.5035000000000001
0.5045000000000001
0.5055000000000001
0.506
0.5065000000000001
0.507
0.5085000000000001
0.5095000000000001
0.509
0.5105000000000001
0.5105000000000001
0.5075000000000001
0.5085000000000001
0.5065000000000001
0.5095000000000001
0.5095000000000001
0.507
0.507
0.5075000000000001
0.5085000000000001
0.5075000000000001
0.5085000000000001
0.509
0.509
0.5075000000000001
0.5075000000000001
0.507
0.507
0.5035000000000001
0.5045000000000001
0.5025000000000001
0.505
0.503
0.5025000000000001
0.5065000000000001
0.5065000000000001
0.5085000000000001
0.507
0.509
0.505
0.5055000000000001
0.5045000000000001
0.5075000000000001
0.5085000000000001
0.5055000000000001
0.505
0.505
0.505
0.5045000000000001
0.503
0.505
0.5015000000000001
0.5025000000000001
0.5035000000000001
0.504
0.5055000000000001
0.505
0.502
0.504
0.5025000000000001
0.5025000000000001
0.504
0.503
0.5015000000000001
0.5035000000000001
0.5055000000000001
0.5035000000000001
0.5035000000000001
0.5055000000000001
0.5035000000000001
0.5015000000000001
0.5045000000000001
0.5035000000000001
0.5055000000000001
0.5055000000000001
0.5025000000000001
0.503
0.5025000000000001
0.5025000000000001
0.504
0.505
0.503
0.507
0.5045000000000001
0.508
0.505
0.5075000000000001
0.5085000000000001
0.5055000000000001
0.5085000000000001
0.5085000000000001
0.508
0.5065000000000001
0.5065000000000001
0.506
0.5085000000000001
0.5065000000000001
0.5055000000000001
0.5075000000000001
0.509
0.5085000000000001
0.5065000000000001
0.507
0.5095000000000001
0.508
0.508
0.5085000000000001
0.509
0.509
0.51
0.5105000000000001
0.5105000000000001
0.5105000000000001
0.512
0.5105000000000001
0.5105000000000001
0.512
0.51
0.511
0.511
0.5115000000000001
0.512
0.511
0.511
0.5115000000000001
0.512
0.5105000000000001
0.5115000000000001
0.5115000000000001
0.5115000000000001
0.5105000000000001
0.5105000000000001
0.51
0.5105000000000001
0.51
0.5105000000000001
0.51
0.5115000000000001
0.5105000000000001
0.511
0.5105000000000001
0.511
0.5105000000000001
0.5095000000000001
0.5085000000000001
0.5085000000000001
0.509
0.5095000000000001
0.5095000000000001
0.5105000000000001
0.508
0.5095000000000001
0.512
0.511
0.51
0.51
0.5105000000000001
0.5105000000000001
0.511
0.511
0.511
0.5105000000000001
0.511
0.5105000000000001
0.511
0.511
0.5115000000000001
0.5105000000000001
0.5095000000000001
0.51
0.5095000000000001
0.5095000000000001
0.509
0.5095000000000001
0.511
0.5105000000000001
0.5095000000000001
0.511
0.5105000000000001
0.5105000000000001
0.5105000000000001
0.5105000000000001
0.5095000000000001
0.5095000000000001
0.5105000000000001
0.51
0.51
0.5095000000000001
0.511
0.5105000000000001
0.511
0.51
0.5085000000000001
0.5085000000000001
0.5095000000000001
0.5085000000000001
0.5075000000000001
0.5075000000000001
0.5075000000000001
0.507
0.5075000000000001
0.5085000000000001
0.5055000000000001
0.5065000000000001
0.5055000000000001
0.505
0.5035000000000001
0.504
0.5045000000000001
0.5045000000000001
0.5045000000000001
0.5045000000000001
0.5035000000000001
0.5025000000000001
0.5035000000000001
0.503
0.5035000000000001
0.504
0.5045000000000001
0.5055000000000001
0.5065000000000001
0.5075000000000001
0.5065000000000001
0.5065000000000001
0.5075000000000001
0.5105000000000001
0.5075000000000001
0.51
0.509
0.5085000000000001
0.5055000000000001
0.5085000000000001
0.508
0.508
0.508
0.5095000000000001
0.51
0.5095000000000001
0.511
0.512
0.5115000000000001
0.509
0.5115000000000001
0.512
0.5115000000000001
0.5115000000000001
0.5115000000000001
0.5115000000000001
0.5105000000000001
0.5105000000000001
0.5115000000000001
0.511
0.51
0.5105000000000001
0.511
0.5115000000000001
0.5095000000000001
0.509
0.5075000000000001
0.508
0.5085000000000001
0.508
0.5075000000000001
0.509
0.5085000000000001
0.5085000000000001
0.509
0.5105000000000001
0.5095000000000001
0.5085000000000001
0.508
0.5105000000000001
0.5055000000000001
0.5045000000000001
0.501
0.501
0.5035000000000001
0.503
0.5015000000000001
0.503
0.504
0.502
0.5035000000000001
0.5035000000000001
0.502
0.5045000000000001
0.5045000000000001
0.5035000000000001
0.5015000000000001
0.503
0.5035000000000001
0.5035000000000001
0.5055000000000001
0.5035000000000001
0.508
0.505
0.508
0.5065000000000001
0.504
0.5075000000000001
0.5095000000000001
0.508
0.5065000000000001
0.5085000000000001
0.509
0.508
0.5065000000000001
0.5075000000000001
0.5075000000000001
0.5065000000000001
0.5075000000000001
0.5115000000000001
0.5075000000000001
0.5105000000000001
0.5085000000000001
0.508
0.5115000000000001
0.508
0.5105000000000001
0.5075000000000001
0.509
0.5095000000000001
0.5075000000000001
0.5065000000000001
0.508
0.5045000000000001
0.51
0.507
0.5065000000000001
0.5075000000000001
0.505
0.5055000000000001
0.507
0.505
0.5065000000000001
0.5065000000000001
0.5055000000000001
0.5065000000000001
0.5075000000000001
0.507
0.5095000000000001
0.5085000000000001
0.5035000000000001
0.5055000000000001
0.511
0.5035000000000001
0.507
0.5055000000000001
0.503
0.5005000000000001
0.503
0.4995
0.501
0.5025000000000001
0.504
0.506
0.504
0.5065000000000001
0.5045000000000001
0.505
0.505
0.5025000000000001
0.503
0.5035000000000001
0.5025000000000001
0.5035000000000001
0.503
0.5025000000000001
0.5025000000000001
0.506
0.505
0.5045000000000001
0.5045000000000001
0.5055000000000001
0.505
0.507
0.507
0.507
0.508
0.5075000000000001
0.51
0.5125
0.5095000000000001
0.5105000000000001
0.507
0.51
0.5095000000000001
0.5075000000000001
0.51
0.5105000000000001
0.511
0.5105000000000001
0.511
0.5105000000000001
0.5105000000000001
0.511
0.5095000000000001
0.511
0.511
0.51
0.5115000000000001
0.5115000000000001
0.5115000000000001
0.512
0.5115000000000001
0.5115000000000001
0.512
0.511
0.5115000000000001
0.512
0.513
0.511
0.5115000000000001
0.5125
0.5105000000000001
0.511
0.512
0.512
0.512
0.511
0.512
0.512
0.5115000000000001
0.5125
0.5115000000000001
0.512
0.513
0.5135
0.5095000000000001
0.512
0.512
0.511
0.5105000000000001
0.5105000000000001
0.5105000000000001
0.5115000000000001
0.5105000000000001
0.5095000000000001
0.5115000000000001
0.5115000000000001
0.5105000000000001
0.5105000000000001
0.511
0.511
0.5105000000000001
0.51
0.5105000000000001
0.5095000000000001
0.511
0.5105000000000001
0.512
0.512
0.5125
0.51
0.511
0.5115000000000001
0.5115000000000001
0.511
0.511
0.513
0.512
0.5105000000000001
0.5105000000000001
0.5115000000000001
0.511
0.5105000000000001
0.511
0.511
0.5105000000000001
0.5105000000000001
0.5105000000000001
0.5105000000000001
0.5105000000000001
0.511
0.5105000000000001
0.5105000000000001
0.51
0.51
0.51
0.51
0.512
0.5105000000000001
0.5115000000000001
0.5095000000000001
0.5115000000000001
0.5105000000000001
0.509
0.5095000000000001
0.5105000000000001
0.51
0.511
0.5095000000000001
0.5105000000000001
0.5105000000000001
0.511
0.511
0.5115000000000001
0.5105000000000001
0.5095000000000001
0.511
0.51
0.51
0.51
0.5095000000000001
0.51
0.51
0.5095000000000001
0.5095000000000001
0.5095000000000001
0.509
0.509
0.5085000000000001
0.5085000000000001
0.5075000000000001
0.507
0.5055000000000001
0.505
0.5045000000000001
0.5045000000000001
0.5055000000000001
0.5045000000000001
0.505
0.5035000000000001
0.5035000000000001
0.5045000000000001
0.5055000000000001
0.5045000000000001
0.5035000000000001
0.5025000000000001
0.5025000000000001
0.502
0.5035000000000001
0.5045000000000001
0.5055000000000001
0.5055000000000001
0.5065000000000001
0.506
0.507
0.5045000000000001
0.5055000000000001
0.5075000000000001
0.5065000000000001
0.5085000000000001
0.5075000000000001
0.5075000000000001
0.511
0.5095000000000001
0.511
0.508
0.5095000000000001
0.509
0.511
0.5105000000000001
0.5075000000000001
0.506
0.5065000000000001
0.5105000000000001
0.5065000000000001
0.5085000000000001
0.5085000000000001
0.5095000000000001
0.507
0.5105000000000001
0.508
0.5095000000000001
0.5095000000000001
0.51
0.5115000000000001
0.5095000000000001
0.508
0.512
0.5125
0.509
0.5095000000000001
0.512
0.5085000000000001
0.509
0.5115000000000001
0.509
0.509
0.507
0.5075000000000001
0.51
0.5075000000000001
0.509
0.5075000000000001
0.5085000000000001
0.508
0.5075000000000001
0.506
0.507
0.5085000000000001
0.5075000000000001
0.5075000000000001
0.507
0.5065000000000001
0.5055000000000001
0.5065000000000001
0.5085000000000001
0.507
0.5065000000000001
0.507
0.5065000000000001
0.5095000000000001
0.5085000000000001
0.5105000000000001
0.508
0.51
0.506
0.507
0.5075000000000001
0.508
0.507
0.5065000000000001
0.5075000000000001
0.5085000000000001
0.506
0.503
0.5045000000000001
0.505
0.5045000000000001
0.505
0.5075000000000001
0.5035000000000001
0.5055000000000001
0.5055000000000001
0.508
0.5075000000000001
0.5055000000000001
0.5075000000000001
0.509
0.5065000000000001
0.5075000000000001
0.5085000000000001
0.5075000000000001
0.5065000000000001
0.5055000000000001
0.508
0.5065000000000001
0.506
0.505
0.5065000000000001
0.5065000000000001
0.5055000000000001
0.5065000000000001
0.5075000000000001
0.507
0.507
0.507
0.5085000000000001
0.5075000000000001
0.506
0.5095000000000001
0.5105000000000001
0.5115000000000001
0.5115000000000001
0.5105000000000001
0.5095000000000001
0.508
0.506
0.508
0.5065000000000001
0.5065000000000001
0.5055000000000001
0.502
0.5005000000000001
0.5035000000000001
0.5035000000000001
0.501
0.503
0.5035000000000001
0.5035000000000001
0.504
0.505
0.5065000000000001
0.5045000000000001
0.5045000000000001
0.5035000000000001
0.5035000000000001
0.5045000000000001
0.5045000000000001
0.504
0.504
0.5055000000000001
0.5065000000000001
0.5085000000000001
0.508
0.5075000000000001
0.5085000000000001
0.5085000000000001
0.511
0.5105000000000001
0.5085000000000001
0.51
0.5095000000000001
0.5105000000000001
0.5105000000000001
0.5105000000000001
0.51
0.5105000000000001
0.511
0.5115000000000001
0.5115000000000001
0.512
0.512
0.5115000000000001
0.5145
0.5115000000000001
0.512
0.512
0.511
0.508
0.509
0.51
0.5095000000000001
0.5105000000000001
0.512
0.512
0.513
0.5135
0.512
0.5115000000000001
0.511
0.512
0.5125
0.512
0.512
0.5125
0.512
0.5115000000000001
0.5125
0.5125
0.5125
0.5145
0.513
0.5135
0.5135
0.5135
0.51
0.5115000000000001
0.5135
0.512
0.511
0.5115000000000001
0.511
0.511
0.511
