0.4995
0.498
0.4995
0.4995
0.498
0.4975
0.4995
0.5
0.4995
0.5
0.5035000000000001
0.4985
0.5015000000000001
0.503
0.4985
0.4985
0.499
0.503
0.4995
0.5005000000000001
0.501
0.502
0.503
0.5025000000000001
0.5035000000000001
0.5025000000000001
0.503
0.5035000000000001
0.5025000000000001
0.502
0.499
0.499
0.5025000000000001
0.5055000000000001
0.501
0.499
0.5025000000000001
0.5015000000000001
0.505
0.5035000000000001
0.5075000000000001
0.503
0.501
0.502
0.5035000000000001
0.5
0.5015000000000001
0.5035000000000001
0.503
0.5035000000000001
0.5015000000000001
0.5005000000000001
0.5
0.501
0.503
0.502
0.501
0.504
0.5025000000000001
0.503
0.5025000000000001
0.504
0.504
0.5035000000000001
0.5075000000000001
0.4995
0.5005000000000001
0.499
0.498
0.4995
0.5
0.5
0.5005000000000001
0.5035000000000001
0.511
0.806
0.6625
0.6225
0.5975
0.5835
0.5765
0.5740000000000001
0.579
0.5815
0.5775
0.5670000000000001
0.554
0.545
0.5345
0.5265
0.5205
0.5185
0.5135
0.51
0.5075000000000001
0.508
0.5045000000000001
0.5075000000000001
0.5045000000000001
0.504
0.5055000000000001
0.5065000000000001
0.503
0.507
0.5055000000000001
0.502
0.5045000000000001
0.5055000000000001
0.5025000000000001
0.5055000000000001
0.5025000000000001
0.5055000000000001
0.5065000000000001
0.5045000000000001
0.5025000000000001
0.5025000000000001
0.5
0.499
0.4995
0.498
0.5005000000000001
0.5025000000000001
0.5015000000000001
0.499
0.498
0.498
0.498
0.499
0.4985
0.4995
0.499
0.499
0.498
0.498
0.498
0.499
0.4995
0.502
0.5005000000000001
0.5005000000000001
0.4985
0.5
0.5
0.5005000000000001
0.5
0.499
0.4985
0.4975
0.4975
0.4985
0.4975
0.4975
0.498
0.499
0.4985
0.4995
0.4995
0.4985
0.4975
0.497
0.4985
0.5
0.5
0.5
0.5
0.499
0.4995
0.499
0.4985
0.4975
0.498
0.4985
0.499
0.4985
0.4995
0.5005000000000001
0.499
0.4995
0.4995
0.499
0.4985
0.4975
0.499
0.499
0.498
0.4975
0.4965
0.499
0.498
0.498
0.4985
0.4995
0.499
0.4995
0.5
0.5005000000000001
0.4995
0.499
0.499
0.4985
0.499
0.499
0.4995
0.499
0.501
0.5015000000000001
0.4995
0.5005000000000001
0.5005000000000001
0.498
0.501
0.5015000000000001
0.501
0.5015000000000001
0.497
0.4995
0.4935
0.495
0.499
0.4985
0.499
0.4975
0.4975
0.498
0.5015000000000001
0.5025000000000001
0.507
0.5195
0.5945
0.705
0.7525000000000001
0.743
0.7055
0.6605
0.623
0.5935
0.5700000000000001
0.559
0.545
0.5395
0.538
0.5395
0.538
0.534
0.5275
0.5205
0.515
0.513
0.507
0.5035000000000001
0.503
0.5035000000000001
0.4995
0.4995
0.4995
0.499
0.498
0.498
0.4985
0.4995
0.4995
0.5005000000000001
0.499
0.497
0.4965
0.494
0.4995
0.4995
0.501
0.5
0.4985
0.5
0.4985
0.5015000000000001
0.4995
0.499
0.4995
0.4985
0.497
0.5005000000000001
0.5005000000000001
0.499
0.4995
0.4995
0.5
0.501
0.497
0.4985
0.5
0.5015000000000001
0.5005000000000001
0.5005000000000001
0.499
0.501
0.4995
0.5015000000000001
0.5035000000000001
0.503
0.501
0.502
0.501
0.5015000000000001
0.503
0.5005000000000001
0.5015000000000001
0.501
0.5
0.5
0.5015000000000001
0.5005000000000001
0.4995
0.4995
0.499
0.5015000000000001
0.504
0.505
0.5035000000000001
0.5035000000000001
0.503
0.5025000000000001
0.5025000000000001
0.5035000000000001
0.5045000000000001
0.505
0.5055000000000001
0.5055000000000001
0.506
0.505
0.5045000000000001
0.5055000000000001
0.505
0.507
0.5035000000000001
0.506
0.5055000000000001
0.5045000000000001
0.505
0.5065000000000001
0.505
0.5045000000000001
0.5055000000000001
0.504
0.5055000000000001
0.506
0.5055000000000001
0.5065000000000001
0.505
0.5065000000000001
0.5065000000000001
0.5065000000000001
0.5055000000000001
0.508
0.5065000000000001
0.5045000000000001
0.5035000000000001
0.504
0.5025000000000001
0.5015000000000001
0.5015000000000001
0.501
0.4995
0.4995
0.4995
0.4995
0.499
0.498
0.498
0.4985
0.497
0.4975
0.497
0.493
0.4955
0.495
0.4955
0.497
0.499
0.502
0.507
0.5295
0.6285000000000001
0.7685
0.8345
0.8290000000000001
0.7765
0.7215
0.667
0.628
0.5985
0.5775
0.5605
0.5515
0.5415
0.5395
0.539
0.5305
0.527
0.5195
0.514
0.5075000000000001
0.5015000000000001
0.5
0.498
0.497
0.496
0.495
0.494
0.497
0.498
0.496
0.4985
0.4995
0.4985
0.5025000000000001
0.4995
0.5
0.5005000000000001
0.5005000000000001
0.5
0.499
0.5015000000000001
0.4975
0.502
0.5005000000000001
0.497
0.498
0.5005000000000001
0.5015000000000001
0.504
0.5025000000000001
0.5015000000000001
0.5015000000000001
0.5
0.5
0.4995
0.5005000000000001
0.4995
0.498
0.502
0.5025000000000001
0.5005000000000001
0.5005000000000001
0.499
0.501
0.4995
0.5005000000000001
0.5
0.498
0.4975
0.4995
0.4995
0.4995
0.4995
0.5005000000000001
0.501
0.5035000000000001
0.503
0.5015000000000001
0.5025000000000001
0.503
0.5035000000000001
0.5035000000000001
0.5025000000000001
0.503
0.5025000000000001
0.501
0.5035000000000001
0.503
0.5
0.503
0.504
0.502
0.5045000000000001
0.5035000000000001
0.5035000000000001
0.506
0.5055000000000001
0.5055000000000001
0.5025000000000001
0.5035000000000001
0.5035000000000001
0.5045000000000001
0.5045000000000001
0.504
0.505
0.505
0.5055000000000001
0.5055000000000001
0.5055000000000001
0.5065000000000001
0.507
0.505
0.5055000000000001
0.5065000000000001
0.505
0.5055000000000001
0.506
0.506
0.5075000000000001
0.5055000000000001
0.5055000000000001
0.505
0.5045000000000001
0.5045000000000001
0.5035000000000001
0.5035000000000001
0.503
0.5035000000000001
0.503
0.5025000000000001
0.502
0.502
0.5015000000000001
0.5
0.502
0.5005000000000001
0.501
0.4965
0.496
0.4975
0.495
0.4955
0.4965
0.497
0.4975
0.4985
0.498
0.4995
0.5005000000000001
0.5035000000000001
0.5095000000000001
0.5855
0.7635000000000001
0.896
0.92
0.8805000000000001
0.8075
0.7415
0.6880000000000001
0.6455
0.6145
0.5925
0.5775
0.5675
0.5625
0.5605
0.557
0.548
0.539
0.5295
0.523
0.517
0.513
0.51
0.5065000000000001
0.5045000000000001
0.5025000000000001
0.501
0.501
0.5035000000000001
0.502
0.5015000000000001
0.5005000000000001
0.5
0.4995
0.4995
0.5005000000000001
0.5005000000000001
0.501
0.5015000000000001
0.502
0.502
0.5015000000000001
0.5015000000000001
0.503
0.503
0.5025000000000001
0.5035000000000001
0.5035000000000001
0.503
0.504
0.504
0.503
0.5025000000000001
0.5035000000000001
0.5025000000000001
0.5025000000000001
0.5015000000000001
0.502
0.5035000000000001
0.5045000000000001
0.5035000000000001
0.5025000000000001
0.503
0.5035000000000001
0.5025000000000001
0.5035000000000001
0.503
0.503
0.5035000000000001
0.5035000000000001
0.5035000000000001
0.502
0.502
0.5035000000000001
0.5045000000000001
0.5055000000000001
0.5015000000000001
0.5035000000000001
0.5015000000000001
0.5015000000000001
0.5015000000000001
0.501
0.501
0.501
0.501
0.504
0.5015000000000001
0.503
0.5035000000000001
0.503
0.503
0.5025000000000001
0.503
0.5015000000000001
0.5
0.5005000000000001
0.5035000000000001
0.5005000000000001
0.4985
0.498
0.497
0.4965
0.4975
0.4985
0.5015000000000001
0.5005000000000001
0.4985
0.4985
0.5
0.4985
0.4985
0.4985
0.498
0.498
0.4985
0.498
0.498
0.499
0.499
0.4975
0.4985
0.497
0.4975
0.4965
0.497
0.4975
0.501
0.4995
0.4975
0.499
0.4985
0.4985
0.4995
0.4985
0.4995
0.4975
0.4995
0.5
0.5015000000000001
0.4995
0.5
0.4985
0.5005000000000001
0.5015000000000001
0.5005000000000001
0.499
0.4995
0.5
0.4995
0.4995
0.4985
0.498
0.4975
0.4955
0.494
0.493
0.4935
0.4955
0.495
0.4955
0.495
0.4975
0.5065000000000001
0.5225
0.5935
0.7745
0.8595
0.842
0.777
0.707
0.653
0.609
0.5805
0.561
0.5475
0.5365
0.5375
0.532
0.5285
0.519
0.5155
0.5095000000000001
0.5055000000000001
0.5035000000000001
0.505
0.5035000000000001
0.5015000000000001
0.5005000000000001
0.5005000000000001
0.5005000000000001
0.5005000000000001
0.5015000000000001
0.5005000000000001
0.502
0.5015000000000001
0.5015000000000001
0.5025000000000001
0.5
0.497
0.4975
0.496
0.4945
0.496
0.5025000000000001
0.4995
0.4985
0.5005000000000001
0.499
0.5
0.499
0.5
0.502
0.499
0.4995
0.4985
0.5015000000000001
0.5015000000000001
0.5
0.5015000000000001
0.499
0.4995
0.5
0.4995
0.4935
0.4965
0.4955
0.4965
0.4955
0.497
0.4995
0.499
0.5
0.4995
0.502
0.501
0.5015000000000001
0.5015000000000001
0.5015000000000001
0.5015000000000001
0.501
0.5015000000000001
0.501
0.502
0.5025000000000001
0.5025000000000001
0.5045000000000001
0.5025000000000001
0.501
0.5025000000000001
0.503
0.502
0.5025000000000001
0.5015000000000001
0.5025000000000001
0.5015000000000001
0.503
0.503
0.5025000000000001
0.503
0.503
0.5025000000000001
0.5025000000000001
0.5025000000000001
0.5035000000000001
0.5035000000000001
0.5055000000000001
0.506
0.5025000000000001
0.502
0.5035000000000001
0.503
0.5035000000000001
0.5035000000000001
0.503
0.5035000000000001
0.504
0.504
0.5045000000000001
0.5035000000000001
0.5035000000000001
0.503
0.5035000000000001
0.503
0.503
0.503
0.5005000000000001
0.5
0.4995
0.501
0.4985
0.5005000000000001
0.501
0.502
0.5015000000000001
0.501
0.503
0.5015000000000001
0.5035000000000001
0.503
0.502
0.5025000000000001
0.5025000000000001
0.5025000000000001
0.5015000000000001
0.501
0.4995
0.499
0.4985
0.4985
0.4975
0.4975
0.498
0.4995
0.501
0.503
0.5085000000000001
0.519
0.56
0.683
0.798
0.839
0.8135
0.761
0.6990000000000001
0.656
0.6235
0.601
0.5825
0.5735
0.5695
0.5740000000000001
0.5865
0.594
0.586
0.5735
0.559
0.5465
0.5345
0.5255
0.519
0.5145
0.5105000000000001
0.507
0.5045000000000001
0.5025000000000001
0.5015000000000001
0.5015000000000001
0.5015000000000001
0.5015000000000001
0.5015000000000001
0.5015000000000001
0.5035000000000001
0.5015000000000001
0.4995
0.502
0.5005000000000001
0.501
0.5015000000000001
0.502
0.5015000000000001
0.502
0.501
0.501
0.501
0.5015000000000001
0.5025000000000001
0.501
0.4995
0.502
0.5025000000000001
0.4995
0.5
0.4985
0.497
0.4985
0.4965
0.4985
0.497
0.498
0.4985
0.4975
0.496
0.497
0.4975
0.4975
0.496
0.4965
0.4975
0.4955
0.4975
0.4985
0.4975
0.4955
0.4955
0.497
0.4965
0.493
0.4935
0.4935
0.495
0.495
0.497
0.4965
0.495
0.498
0.498
0.4955
0.497
0.4965
0.495
0.497
0.498
0.4965
0.4955
0.497
0.4975
0.4985
0.497
0.4965
0.4975
0.497
0.4965
0.4965
0.4985
0.4975
0.4985
0.4985
0.498
0.4975
0.497
0.4985
0.4985
0.498
0.496
0.4965
0.4955
0.498
0.4965
0.498
0.4965
0.4955
0.497
0.494
0.4975
0.4975
0.496
0.4955
0.494
0.4965
0.496
0.4955
0.495
0.4985
0.501
0.4985
0.4985
0.4985
0.497
0.4975
0.4975
0.4985
0.4975
0.499
0.498
0.498
0.5015000000000001
0.498
0.5005000000000001
0.5015000000000001
0.499
0.499
0.4945
0.4985
0.493
0.495
0.495
0.495
0.4955
0.4945
0.497
0.5115000000000001
0.61
0.8095
0.932
0.9305
0.835
0.731
0.6705
0.5675
0.5445
0.5295
0.516
0.5095000000000001
0.5055000000000001
0.5
0.4975
0.496
0.494
0.4955
0.4955
0.4965
0.4955
0.4975
0.497
0.4955
0.4965
0.4965
0.5005000000000001
0.4975
0.4975
0.4975
0.496
0.498
0.498
0.4985
0.4995
0.4995
0.4995
0.501
0.4995
0.501
0.4995
0.4995
0.5005000000000001
0.5
0.497
0.4965
0.4965
0.4975
0.4935
0.4955
0.4965
0.498
0.4985
0.4985
0.4995
0.5
0.5005000000000001
0.5005000000000001
0.4995
0.4995
0.499
0.5045000000000001
0.502
0.5015000000000001
0.499
0.501
0.5005000000000001
0.5005000000000001
0.5005000000000001
0.5005000000000001
0.4995
0.501
0.5
0.501
0.5005000000000001
0.5005000000000001
0.501
0.5005000000000001
0.5
0.5
0.502
0.501
0.501
0.5015000000000001
0.4995
0.4995
0.499
0.498
0.496
0.4965
0.497
0.4965
0.496
0.4965
0.4955
0.4935
0.4945
0.494
0.494
0.4945
0.495
0.4935
0.494
0.4955
0.494
0.4945
0.4965
0.4935
0.4935
0.494
0.4935
0.493
0.4935
0.494
0.4945
0.495
0.4965
0.4955
0.495
0.495
0.4935
0.4935
0.493
0.4935
0.4945
0.4955
0.4955
0.498
0.4975
0.497
0.497
0.4965
0.4955
0.4965
0.4975
0.497
0.4965
0.4965
0.496
0.4975
0.498
0.4975
0.4985
0.4975
0.497
0.4955
0.4945
0.4935
0.493
0.4925
0.492
0.494
0.494
0.4935
0.495
0.4985
0.505
0.5175
0.539
0.6185
0.746
0.8220000000000001
0.8295
0.79
0.735
0.6845
0.646
0.613
0.588
0.5665
0.5515
0.5425
0.5375
0.5315
0.527
0.5205
0.5145
0.509
0.5035000000000001
0.499
0.4975
0.498
0.493
0.49
0.4915
0.492
0.492
0.49
0.4945
0.492
0.4945
0.4955
0.4935
0.4925
0.4945
0.4955
0.4955
0.492
0.491
0.4945
0.4945
0.494
0.494
0.4945
0.4935
0.495
0.4955
0.4955
0.4955
0.4955
0.494
0.495
0.4945
0.4955
0.495
0.4955
0.499
0.493
0.4965
0.493
0.495
0.4925
0.4945
0.494
0.497
0.495
0.495
0.4965
0.494
0.4945
0.494
0.4955
0.494
0.493
0.4955
0.4985
0.497
0.4955
0.4935
0.4965
0.4955
0.4955
0.496
0.4975
0.5
0.4965
0.4965
0.4965
0.4975
0.4925
0.497
0.4975
0.4935
0.4975
0.4955
0.4975
0.4975
0.4975
0.4965
0.5
0.4965
0.4975
0.498
0.5015000000000001
0.498
0.4965
0.497
0.4985
0.4955
0.496
0.4985
0.4985
0.4995
0.4985
0.4975
0.4985
0.498
0.4975
0.498
0.4965
0.497
0.497
0.4955
0.4965
0.495
0.4975
0.4965
0.4955
0.4965
0.4965
0.4965
0.4965
0.4955
0.4945
0.4955
0.497
0.495
0.494
0.4945
0.4935
0.4935
0.492
0.49
0.4895
0.489
0.4895
0.4895
0.489
0.49
0.4895
0.493
0.4975
0.5095000000000001
0.5665
0.7075
0.8210000000000001
0.8525
0.8225
0.765
0.7095
0.6625
0.6265000000000001
0.5965
0.5775
0.5630000000000001
0.557
0.552
0.554
0.5545
0.548
0.5425
0.5325
0.5235
0.5185
0.513
0.5095000000000001
0.507
0.504
0.5015000000000001
0.5005000000000001
0.4995
0.4995
0.499
0.499
0.4995
0.5
0.4995
0.4995
0.5015000000000001
0.4995
0.5
0.5005000000000001
0.5
0.501
0.5
0.4995
0.5005000000000001
0.5015000000000001
0.5005000000000001
0.4995
0.5005000000000001
0.501
0.4995
0.4995
0.4975
0.4975
0.4975
0.497
0.498
0.4975
0.498
0.4965
0.4965
0.4945
0.4945
0.4945
0.4965
0.4945
0.4955
0.4955
0.4945
0.495
0.4955
0.4935
0.4935
0.494
0.4935
0.4935
0.4925
0.493
0.4935
0.494
0.4955
0.496
0.4975
0.4985
0.4985
0.4995
0.503
0.501
0.4995
0.4985
0.4995
0.5
0.4995
0.499
0.501
0.5
0.498
0.4975
0.4975
0.499
0.498
0.4975
0.4965
0.4975
0.4975
0.497
0.4975
0.4975
0.4975
0.497
0.4965
0.495
0.4945
0.4955
0.4965
0.4955
0.4955
0.4945
0.4935
0.494
0.495
0.494
0.4945
0.494
0.4925
0.4935
0.495
0.494
0.4935
0.493
0.4935
0.4935
0.4935
0.4945
0.4935
0.4965
0.4955
0.4975
0.4965
0.4955
0.494
0.495
0.4955
0.494
0.4965
0.4935
0.4945
0.4945
0.495
0.4955
0.4935
0.4945
0.4935
0.4935
0.4945
0.493
0.4925
0.494
0.4925
0.4925
0.4955
0.4915
0.4955
0.4915
0.4895
0.4905
0.492
0.498
0.508
0.5225
0.5675
0.6945
0.8015
0.8250000000000001
0.7815
0.719
0.6655
0.625
0.5935
0.5695
0.555
0.545
0.5375
0.533
0.5295
0.5205
0.5135
0.5125
0.5045000000000001
0.5005000000000001
0.4955
0.4955
0.4925
0.4905
0.4925
0.493
0.494
0.4965
0.496
0.4975
0.4965
0.4955
0.4955
0.4995
0.497
0.4975
0.4975
0.498
0.4965
0.5005000000000001
0.4955
0.497
0.497
0.496
0.4925
0.4965
0.497
0.4975
0.498
0.498
0.4945
0.4935
0.4955
0.4955
0.4945
0.4925
0.49
0.4955
0.495
0.492
0.4955
0.4985
0.4995
0.4985
0.4995
0.5005000000000001
0.4995
0.5
0.4995
0.4995
0.499
0.4975
0.4975
0.4965
0.4965
0.4965
0.4955
0.4975
0.4945
0.4955
0.494
0.4935
0.495
0.494
0.4945
0.4945
0.4945
0.4955
0.4945
0.4945
0.494
0.493
0.495
0.4935
0.4945
0.494
0.494
0.4935
0.4945
0.4945
0.4955
0.495
0.4955
0.495
0.4955
0.494
0.495
0.494
0.494
0.4945
0.495
0.4955
0.4965
0.496
0.4965
0.496
0.4955
0.4945
0.494
0.4945
0.494
0.4955
0.4965
0.4955
0.496
0.496
0.496
0.4965
0.496
0.497
0.4985
0.497
0.496
0.4955
0.4955
0.4955
0.4945
0.495
0.4955
0.4955
0.494
0.493
0.493
0.4935
0.49
0.4895
0.4895
0.4885
0.4895
0.4905
0.4915
0.4995
0.5075000000000001
0.5165
0.5675
0.669
0.7375
0.7475
0.723
0.683
0.642
0.6115
0.5865
0.5670000000000001
0.5585
0.5595
0.561
0.5715
0.582
0.5815
0.5715
0.558
0.543
0.531
0.522
0.513
0.5085000000000001
0.501
0.5005000000000001
0.499
0.4975
0.496
0.495
0.494
0.495
0.495
0.4955
0.4955
0.4955
0.4945
0.4945
0.494
0.4935
0.494
0.4935
0.495
0.495
0.4955
0.4955
0.4955
0.4945
0.4955
0.493
0.4955
0.495
0.4955
0.495
0.495
0.4945
0.4955
0.4945
0.4945
0.4955
0.4975
0.496
0.4945
0.495
0.4945
0.4955
0.4955
0.4955
0.4955
0.4965
0.498
0.4985
0.5
0.4995
0.4985
0.501
0.4975
0.4975
0.4965
0.4965
0.4955
0.497
0.498
0.4955
0.4955
0.4955
0.4955
0.495
0.496
0.4945
0.494
0.493
0.494
0.4955
0.4955
0.495
0.4955
0.491
0.4935
0.4945
0.4955
0.497
0.4955
0.4945
0.4975
0.497
0.4965
0.4955
0.4935
0.4985
0.4965
0.4995
0.498
0.4945
0.496
0.4955
0.4945
0.496
0.496
0.4955
0.4945
0.495
0.4955
0.496
0.497
0.4975
0.4975
0.4995
0.4975
0.497
0.4975
0.4945
0.497
0.499
0.4995
0.497
0.4995
0.498
0.4965
0.497
0.496
0.4985
0.4965
0.4975
0.495
0.4995
0.4985
0.4955
0.5
0.499
0.497
0.497
0.4985
0.4975
0.4995
0.4955
0.4995
0.4985
0.4945
0.4985
0.8755000000000001
0.8170000000000001
0.7325
0.6705
0.6195
0.586
0.5715
0.5695
0.5815
0.5835
0.5755
0.5585
0.542
0.5305
0.5205
0.513
0.506
0.5055000000000001
0.5035000000000001
0.5015000000000001
0.5005000000000001
0.4975
0.498
0.4975
0.4925
0.4965
0.4945
0.4965
0.4965
0.497
0.4975
0.497
0.4965
0.4955
0.495
0.4945
0.4945
0.4945
0.495
0.4945
0.495
0.4945
0.4955
0.495
0.4985
0.4975
0.4995
0.4975
0.496
0.4965
0.495
0.495
0.4945
0.495
0.4955
0.4955
0.4945
0.494
0.4945
0.494
0.4935
0.4935
0.494
0.495
0.4935
0.493
0.4935
0.4935
0.4945
0.495
0.495
0.4945
0.495
0.4935
0.493
0.4925
0.4925
0.4935
0.493
0.494
0.495
0.4955
0.4955
0.4945
0.4955
0.494
0.4945
0.4945
0.496
0.492
0.4935
0.4945
0.494
0.494
0.4945
0.495
0.4935
0.494
0.4935
0.494
0.494
0.4935
0.4935
0.4935
0.4955
0.4945
0.494
0.495
0.4945
0.494
0.4945
0.495
0.4955
0.494
0.4945
0.493
0.493
0.4935
0.494
0.4945
0.495
0.4955
0.498
0.497
0.4985
0.498
0.4975
0.498
0.4955
0.496
0.4965
0.4975
0.497
0.496
0.4955
0.4955
0.496
0.497
0.499
0.499
0.5
0.5025000000000001
0.4995
0.499
0.4995
0.4995
0.498
0.497
0.498
0.4955
0.4925
0.4915
0.491
0.4905
0.4905
0.4915
0.4905
0.4905
0.49
0.491
0.492
0.498
0.5085000000000001
0.544
0.6475
0.778
0.8495
0.851
0.8065
0.7475
0.6955
0.6545
0.6225
0.5955
0.5760000000000001
0.5595
0.5495
0.541
0.5315
0.525
0.519
0.5135
0.5065000000000001
0.502
0.499
0.4945
0.4925
0.491
0.49
0.492
0.492
0.4915
0.4915
0.491
0.4915
0.4915
0.491
0.495
0.4945
0.494
0.4945
0.4955
0.497
0.4975
0.497
0.499
0.4965
0.4975
0.4965
0.4965
0.497
0.4955
0.495
0.494
0.4955
0.497
0.496
0.4965
0.4975
0.498
0.498
0.4955
0.4945
0.495
0.4955
0.4965
0.497
0.4955
0.4935
0.4955
0.494
0.4965
0.497
0.4965
0.4955
0.4955
0.496
0.4985
0.496
0.4985
0.498
0.498
0.497
0.498
0.4945
0.4985
0.4975
0.4985
0.496
0.4955
0.4985
0.494
0.4955
0.4965
0.499
0.4975
0.498
0.4955
0.495
0.496
0.496
0.497
0.494
0.4955
0.494
0.495
0.4935
0.4905
0.499
0.497
0.4955
0.4955
0.497
0.499
0.4975
0.4965
0.496
0.4955
0.495
0.495
0.493
0.4985
0.4965
0.494
0.4965
0.501
0.497
0.5
0.497
0.4995
0.498
0.4985
0.4975
0.4985
0.4965
0.496
0.4965
0.496
0.4955
0.4955
0.4965
0.4935
0.493
0.4925
0.493
0.491
0.4895
0.492
0.4895
0.4885
0.4875
0.4875
0.4885
0.4905
0.4935
0.5025000000000001
0.5735
0.6675
0.7225
0.7235
0.6945
0.6555
0.6205
0.5915
0.5705
0.5535
0.542
0.535
0.532
0.5325
0.5335
0.5345
0.5275
0.5225
0.516
0.511
0.507
0.5035000000000001
0.502
0.499
0.497
0.4955
0.4955
0.4955
0.4945
0.4955
0.4935
0.494
0.4945
0.495
0.495
0.4925
0.4945
0.493
0.4925
0.4935
0.496
0.496
0.4935
0.4935
0.4945
0.4945
0.495
0.497
0.4945
0.4945
0.4965
0.4965
0.4965
0.4975
0.4965
0.4975
0.498
0.499
0.4995
0.5005000000000001
0.4985
0.4995
0.5
0.5005000000000001
0.4985
0.4985
0.498
0.499
0.498
0.498
0.4975
0.4965
0.4955
0.495
0.4955
0.4955
0.497
0.4975
0.4975
0.497
0.4955
0.4955
0.4975
0.4975
0.499
0.4995
0.4995
0.4995
0.5
0.499
0.4975
0.498
0.4975
0.497
0.4975
0.4975
0.497
0.4975
0.4965
0.496
0.497
0.4955
0.495
0.4935
0.495
0.4965
0.494
0.495
0.4965
0.4935
0.495
0.4965
0.4955
0.4975
0.4975
0.499
0.4995
0.498
0.499
0.4975
0.497
0.4985
0.498
0.4975
0.4955
0.4955
0.4965
0.497
0.4965
0.4975
0.497
0.4975
0.4975
0.4965
0.4955
0.498
0.496
0.498
0.4975
0.499
0.499
0.4965
0.4975
0.4995
0.4985
0.501
0.4975
0.499
0.4985
0.4965
0.497
0.4975
0.4965
0.4965
0.4975
0.498
0.495
0.4935
0.4935
0.4935
0.494
0.4925
0.4915
0.4935
0.4955
0.4995
0.5035000000000001
0.5215
0.557
0.6415
0.7245
0.7515000000000001
0.7345
0.6940000000000001
0.651
0.6155
0.59
0.5685
0.5515
0.5425
0.5365
0.5325
0.5315
0.5295
0.525
0.5185
0.5155
0.507
0.503
0.4995
0.4965
0.4955
0.494
0.4935
0.4915
0.493
0.4945
0.4935
0.4935
0.494
0.493
0.4925
0.4925
0.494
0.495
0.494
0.4955
0.4965
0.497
0.496
0.495
0.4955
0.4955
0.4955
0.496
0.4965
0.497
0.4975
0.4955
0.497
0.4985
0.498
0.499
0.4975
0.496
0.496
0.4975
0.497
0.497
0.4975
0.4975
0.498
0.4965
0.495
0.496
0.4995
0.497
0.5
0.499
0.499
0.5
0.5
0.4975
0.4985
0.498
0.4975
0.4975
0.4975
0.4985
0.4975
0.499
0.4995
0.4985
0.4995
0.4995
0.4975
0.4945
0.4985
0.4985
0.4965
0.497
0.498
0.495
0.4955
0.495
0.496
0.4955
0.496
0.4975
0.4965
0.4955
0.4955
0.4955
0.4985
0.496
0.4975
0.5015000000000001
0.5015000000000001
0.503
0.499
0.5005000000000001
0.501
0.503
0.501
0.5025000000000001
0.499
0.4985
0.5
0.5015000000000001
0.499
0.4985
0.499
0.5005000000000001
0.5015000000000001
0.5005000000000001
0.5
0.4995
0.5025000000000001
0.501
0.5
0.499
0.4965
0.4975
0.498
0.498
0.5035000000000001
0.5015000000000001
0.4995
0.4995
0.4955
0.4955
0.4935
0.4955
0.494
0.496
0.4965
0.4965
0.5035000000000001
0.5165
0.55
0.6415
0.7355
0.774
0.7625000000000001
0.7225
0.6825
0.647
0.615
0.5925
0.5735
0.5615
0.554
0.552
0.556
0.5630000000000001
0.5645
0.5575
0.5465
0.5345
0.5265
0.515
0.5095000000000001
0.505
0.5005000000000001
0.498
0.4965
0.4955
0.4955
0.4965
0.4965
0.4975
0.498
0.497
0.4965
0.499
0.4975
0.499
0.4995
0.501
0.5005000000000001
0.5
0.5005000000000001
0.4995
0.499
0.4975
0.496
0.497
0.4975
0.498
0.499
0.498
0.497
0.4985
0.499
0.4975
0.5005000000000001
0.4985
0.499
0.499
0.4975
0.4975
0.4975
0.4975
0.497
0.496
0.4955
0.4955
0.4955
0.4955
0.4955
0.4965
0.497
0.4945
0.4955
0.4955
0.497
0.496
0.496
0.4955
0.4945
0.4945
0.495
0.495
0.4965
0.4955
0.4965
0.5
0.498
0.4975
0.4975
0.4965
0.4965
0.4955
0.4955
0.4965
0.4965
0.4965
0.496
0.496
0.4965
0.4965
0.496
0.4965
0.4965
0.4955
0.4955
0.497
0.496
0.498
0.4975
0.4955
0.4955
0.4955
0.4945
0.4955
0.4965
0.497
0.498
0.497
0.4965
0.4965
0.4975
0.494
0.4955
0.497
0.497
0.4985
0.4975
0.497
0.4965
0.4965
0.4965
0.4965
0.4965
0.497
0.4975
0.497
0.4995
0.4995
0.5005000000000001
0.5
0.4995
0.4975
0.497
0.4975
0.497
0.4965
0.496
0.497
0.4975
0.4985
0.4975
0.4975
0.4965
0.497
0.497
0.4975
0.4965
0.4955
0.4955
0.4935
0.4925
0.492
0.4915
0.492
0.4915
0.4945
0.494
0.4935
0.4975
0.504
0.538
0.6735
0.8210000000000001
0.8885000000000001
0.865
0.8055
0.7405
0.6825
0.6335000000000001
0.5995
0.5765
0.5705
0.5700000000000001
0.5715
0.5640000000000001
0.5535
0.5415
0.5325
0.5235
0.5185
0.509
0.5075000000000001
0.5055000000000001
0.502
0.499
0.498
0.4955
0.4945
0.4955
0.4935
0.495
0.4935
0.494
0.4955
0.495
0.495
0.497
0.4935
0.4945
0.493
0.4945
0.4955
0.4965
0.493
0.4965
0.495
0.495
0.495
0.495
0.4955
0.494
0.495
0.4965
0.4965
0.4965
0.4965
0.4975
0.4975
0.4965
0.495
0.4955
0.4955
0.4955
0.4955
0.4965
0.496
0.4955
0.4955
0.4965
0.4935
0.495
0.4965
0.4945
0.496
0.4945
0.496
0.4955
0.4965
0.494
0.4945
0.496
0.4955
0.495
0.496
0.4975
0.4955
0.4965
0.4955
0.4975
0.496
0.495
0.4965
0.4955
0.4965
0.4945
0.495
0.495
0.4955
0.496
0.4965
0.498
0.502
0.4995
0.5005000000000001
0.4995
0.5015000000000001
0.5005000000000001
0.5025000000000001
0.5
0.4995
0.5
0.499
0.4975
0.4985
0.4955
0.4965
0.4965
0.499
0.4985
0.496
0.4965
0.5005000000000001
0.4975
0.497
0.497
0.4955
0.5
0.4975
0.499
0.495
0.494
0.4945
0.499
0.496
0.496
0.4995
0.497
0.4995
0.4975
0.502
0.4995
0.503
0.497
0.4985
0.499
0.5
0.5025000000000001
0.5035000000000001
0.501
0.5
0.4965
0.4945
0.492
0.495
0.52
0.658
0.7575000000000001
0.7625000000000001
0.7205
0.675
0.6275000000000001
0.5925
0.5675
0.553
0.544
0.5385
0.54
0.534
0.5255
0.5195
0.5125
0.5065000000000001
0.5055000000000001
0.504
0.5005000000000001
0.4995
0.4995
0.4985
0.4955
0.496
0.497
0.4975
0.4975
0.4955
0.495
0.4955
0.4955
0.4955
0.4955
0.4965
0.4955
0.4955
0.4955
0.4955
0.495
0.4955
0.495
0.4945
0.4945
0.4955
0.495
0.4975
0.499
0.4965
0.4945
0.4965
0.4965
0.4975
0.4965
0.496
0.4945
0.496
0.498
0.4975
0.4975
0.5015000000000001
0.5
0.5015000000000001
0.501
0.501
0.5015000000000001
0.5005000000000001
0.501
0.502
0.5045000000000001
0.5045000000000001
0.5055000000000001
0.5035000000000001
0.5025000000000001
0.5025000000000001
0.502
0.502
0.5025000000000001
0.5025000000000001
0.5015000000000001
0.5015000000000001
0.502
0.5035000000000001
0.5035000000000001
0.5035000000000001
0.503
0.502
0.5025000000000001
0.5015000000000001
0.502
0.5015000000000001
0.5015000000000001
0.502
0.501
0.5015000000000001
0.502
0.502
0.5015000000000001
0.5015000000000001
0.5025000000000001
0.503
0.5035000000000001
0.5035000000000001
0.503
0.504
0.503
0.5035000000000001
0.502
0.5025000000000001
0.5025000000000001
0.503
0.502
0.4995
0.4985
0.498
0.4975
0.498
0.4975
0.4975
0.4995
0.499
0.498
0.499
0.4985
0.4975
0.4965
0.4965
0.4965
0.4965
0.497
0.4975
0.4975
0.4985
0.5
0.502
0.4985
0.4995
0.5005000000000001
0.4995
0.4985
0.499
0.498
0.498
0.4965
0.4975
0.498
0.4985
0.4995
0.4995
0.5005000000000001
0.5015000000000001
0.502
0.5015000000000001
0.5005000000000001
0.4995
0.4995
0.4975
0.498
0.4975
0.496
0.4965
0.497
0.4965
0.4965
0.4975
0.501
0.513
0.587
0.7055
0.7775
0.785
0.75
0.7035
0.657
0.6215
0.595
0.5765
0.562
0.5585
0.5565
0.5555
0.555
0.5505
0.5445
0.5355
0.526
0.5185
0.512
0.5065000000000001
0.5035000000000001
0.4995
0.5015000000000001
0.495
0.4955
0.496
0.4955
0.496
0.4945
0.495
0.496
0.495
0.4955
0.4965
0.4955
0.4945
0.4945
0.4955
0.4945
0.495
0.4955
0.4955
0.4935
0.4955
0.4965
0.4935
0.497
0.4955
0.4945
0.4975
0.4975
0.496
0.497
0.4965
0.4955
0.4935
0.4935
0.497
0.4955
0.4975
0.496
0.4965
0.497
0.495
0.4965
0.496
0.498
0.4965
0.4975
0.499
0.5015000000000001
0.5035000000000001
0.4985
0.5005000000000001
0.499
0.5005000000000001
0.4995
0.4985
0.498
0.4965
0.4965
0.498
0.498
0.497
0.496
0.4985
0.4985
0.4965
0.494
0.497
0.493
0.501
0.4975
0.495
0.4975
0.497
0.496
0.4945
0.4955
0.4955
0.498
0.4985
0.498
0.4985
0.498
0.4975
0.499
0.4945
0.499
0.498
0.4985
0.4985
0.4985
0.4955
0.4955
0.498
0.501
0.499
0.4985
0.5015000000000001
0.4975
0.5
0.4995
0.4975
0.4995
0.5005000000000001
0.499
0.4975
0.4995
0.498
0.499
0.4995
0.498
0.4995
0.4965
0.498
0.5015000000000001
0.499
0.499
0.499
0.4975
0.4975
0.4975
0.5005000000000001
0.5075000000000001
0.515
0.5295
0.5925
0.7010000000000001
0.768
0.7725
0.7385
0.6910000000000001
0.6465
0.6115
0.5835
0.5630000000000001
0.547
0.537
0.5305
0.5325
0.5375
0.5395
0.5365
0.5275
0.521
0.5135
0.5075000000000001
0.503
0.5
0.498
0.497
0.497
0.4945
0.4935
0.493
0.4935
0.4935
0.4965
0.495
0.4955
0.495
0.4945
0.4935
0.495
0.4955
0.497
0.496
0.4965
0.497
0.4965
0.497
0.495
0.4945
0.495
0.495
0.496
0.4965
0.4965
0.4955
0.497
0.4955
0.4935
0.497
0.4965
0.497
0.4955
0.4985
0.496
0.4955
0.4955
0.4955
0.497
0.498
0.497
0.498
0.4975
0.498
0.4965
0.4955
0.4965
0.497
0.497
0.495
0.4955
0.497
0.4995
0.499
0.4955
0.496
0.4965
0.4965
0.4965
0.4965
0.4955
0.4965
0.498
0.4965
0.495
0.4965
0.4965
0.4965
0.4965
0.4965
0.4965
0.496
0.495
0.495
0.495
0.4945
0.499
0.497
0.495
0.496
0.4955
0.4965
0.497
0.497
0.4965
0.4965
0.496
0.4965
0.4975
0.499
0.4965
0.4965
0.4975
0.4975
0.4965
0.4965
0.4965
0.4975
0.4985
0.4995
0.4995
0.5015000000000001
0.4995
0.5
0.4995
0.4985
0.498
0.499
0.499
0.4985
0.4995
0.5
0.4985
0.4975
0.4975
0.4995
0.499
0.5015000000000001
0.5025000000000001
0.5015000000000001
0.5015000000000001
0.5015000000000001
0.5015000000000001
0.501
0.5005000000000001
0.502
0.503
0.5035000000000001
0.5015000000000001
0.5
0.5005000000000001
0.499
0.4975
0.495
0.493
0.4915
0.494
0.4935
0.492
0.494
0.4935
0.502
0.514
0.5375
0.622
0.7575000000000001
0.846
0.849
0.806
0.748
0.6935
0.6545
0.6185
0.5955
0.578
0.5670000000000001
0.5605
0.5645
0.5625
0.5585
0.5465
0.535
0.525
0.5155
0.5115000000000001
0.5045000000000001
0.5015000000000001
0.4995
0.4945
0.4955
0.4965
0.4945
0.496
0.4955
0.4955
0.4965
0.4965
0.495
0.4955
0.494
0.498
0.495
0.496
0.4985
0.495
0.4955
0.5
0.4985
0.497
0.494
0.501
0.495
0.499
0.4985
0.4955
0.4955
0.496
0.4955
0.4975
0.4935
0.4955
0.499
0.4935
0.4995
0.4995
0.5
0.4985
0.4935
0.497
0.496
0.497
0.4955
0.4955
0.497
0.5
0.499
0.5015000000000001
0.498
0.498
0.497
0.498
0.4975
0.4975
0.5
0.4985
0.498
0.498
0.4975
0.4995
0.499
0.5
0.4995
0.502
0.5025000000000001
0.503
0.5025000000000001
0.5025000000000001
0.5025000000000001
0.5035000000000001
0.502
0.5025000000000001
0.502
0.5015000000000001
0.5015000000000001
0.502
0.5015000000000001
0.502
0.5015000000000001
0.5015000000000001
0.5025000000000001
0.503
0.5025000000000001
0.5035000000000001
0.503
0.5025000000000001
0.503
0.5025000000000001
0.502
0.5035000000000001
0.504
0.501
0.503
0.503
0.5035000000000001
0.5035000000000001
0.5035000000000001
0.5035000000000001
0.5035000000000001
0.503
0.5025000000000001
0.503
0.503
0.503
0.5035000000000001
0.5035000000000001
0.5025000000000001
0.503
0.504
0.5025000000000001
0.5015000000000001
0.502
0.5015000000000001
0.5
0.499
0.4985
0.4985
0.4975
0.4985
0.4975
0.4975
0.4985
0.4985
0.505
0.5095000000000001
0.5235
0.5755
0.6965
0.79
0.8140000000000001
0.7855
0.7345
0.6845
0.6445
0.613
0.589
0.5700000000000001
0.561
0.5585
0.5585
0.5635
0.5635
0.558
0.5495
0.539
0.5295
0.5215
0.5165
0.5125
0.5095000000000001
0.507
0.506
0.5025000000000001
0.501
0.4995
0.4995
0.498
0.498
0.4975
0.4965
0.4975
0.4965
0.4965
0.4975
0.499
0.4995
0.5
0.5
0.5015000000000001
0.501
0.5015000000000001
0.501
0.5005000000000001
0.501
0.5015000000000001
0.501
0.501
0.5005000000000001
0.5
0.4995
0.4995
0.498
0.4985
0.498
0.498
0.496
0.4965
0.4965
0.4975
0.4975
0.4975
0.4985
0.4985
0.4985
0.4985
0.4995
0.5
0.5
0.501
0.501
0.502
0.5015000000000001
0.502
0.5025000000000001
0.5015000000000001
0.501
0.5025000000000001
0.501
0.5015000000000001
0.5015000000000001
0.501
0.5015000000000001
0.501
0.5015000000000001
0.4995
0.5005000000000001
0.501
0.4985
0.501
0.5005000000000001
0.5
0.5005000000000001
0.4995
0.498
0.498
0.497
0.4965
0.499
0.495
0.4955
0.4985
0.4945
0.4975
0.4995
0.498
0.4965
0.4955
0.495
0.4945
0.4955
0.495
0.4925
0.4955
0.4955
0.4965
0.4965
0.495
0.4945
0.4965
0.494
0.4945
0.4935
0.495
0.4955
0.4975
0.4945
0.4965
0.4955
0.495
0.4955
0.495
0.4955
0.497
0.4995
0.495
0.497
0.498
0.497
0.4995
0.499
0.5
0.5
0.5
0.4975
0.4965
0.497
0.4965
0.4955
0.4955
0.4945
0.4955
0.4945
0.4935
0.4945
0.4925
0.4925
0.493
0.495
0.4955
0.494
0.496
0.505
0.5195
0.6225
0.791
0.8715
0.8435
0.7725
0.7055
0.6455
0.6055
0.5735
0.557
0.5575
0.5645
0.5680000000000001
0.5650000000000001
0.547
0.534
0.5215
0.512
0.5065000000000001
0.5005000000000001
0.4965
0.492
0.494
0.4925
0.495
0.4955
0.4975
0.4965
0.4965
0.4955
0.4955
0.4965
0.4955
0.497
0.4915
0.4955
0.497
0.496
0.4965
0.4955
0.4945
0.497
0.4975
0.494
0.4945
0.496
0.496
0.4975
0.497
0.498
0.499
0.4995
0.4995
0.5005000000000001
0.499
0.5005000000000001
0.4995
0.5015000000000001
0.5005000000000001
0.5005000000000001
0.4995
0.5005000000000001
0.501
0.4995
0.4995
0.501
0.5005000000000001
0.5015000000000001
0.502
0.5005000000000001
0.501
0.501
0.501
0.501
0.4995
0.5
0.5005000000000001
0.4995
0.4985
0.4995
0.5005000000000001
0.5005000000000001
0.5
0.501
0.5
0.499
0.5005000000000001
0.5
0.4995
0.4995
0.5005000000000001
0.5
0.5
0.5
0.501
0.5005000000000001
0.5005000000000001
0.5015000000000001
0.502
0.5005000000000001
0.502
0.5015000000000001
0.501
0.5005000000000001
0.5015000000000001
0.5015000000000001
0.5015000000000001
0.5015000000000001
0.5015000000000001
0.501
0.501
0.5015000000000001
0.501
0.5015000000000001
0.503
0.4995
0.5005000000000001
0.502
0.501
0.5015000000000001
0.501
0.5005000000000001
0.502
0.502
0.5015000000000001
0.5015000000000001
0.5015000000000001
0.501
0.501
0.501
0.502
0.5015000000000001
0.503
0.502
0.5025000000000001
0.5015000000000001
0.5015000000000001
0.4985
0.4965
0.4955
0.494
0.4925
0.491
0.491
0.49
0.49
0.4915
0.492
0.4935
0.4935
0.494
0.496
0.4995
0.5055000000000001
0.5750000000000001
0.7355
0.852
0.878
0.843
0.782
0.7235
0.674
0.6365000000000001
0.6075
0.5855
0.5725
0.5670000000000001
0.5650000000000001
0.5650000000000001
0.5635
0.555
0.544
0.534
0.525
0.519
0.513
0.5115000000000001
0.51
0.5055000000000001
0.5035000000000001
0.5015000000000001
0.499
0.4995
0.499
0.4985
0.4985
0.499
0.4975
0.4985
0.498
0.497
0.4955
0.4955
0.4935
0.494
0.4935
0.492
0.4915
0.4915
0.491
0.492
0.4915
0.492
0.4925
0.4925
0.4915
0.4915
0.4915
0.4925
0.4935
0.4935
0.4935
0.4945
0.494
0.4925
0.4935
0.4935
0.493
0.4925
0.493
0.492
0.4915
0.4925
0.4925
0.494
0.494
0.492
0.494
0.493
0.4905
0.494
0.492
0.4915
0.4915
0.493
0.4955
0.4945
0.4935
0.4965
0.4955
0.4935
0.493
0.4915
0.492
0.493
0.4925
0.493
0.4915
0.492
0.4935
0.4925
0.494
0.493
0.4945
0.4925
0.493
0.4925
0.4955
0.4945
0.4975
0.4975
0.499
0.4995
0.4975
0.4965
0.499
0.4965
0.495
0.4925
0.497
0.4945
0.4945
0.4925
0.495
0.4935
0.4925
0.4945
0.494
0.4955
0.496
0.495
0.4965
0.496
0.4925
0.494
0.493
0.4915
0.4915
0.4945
0.4955
0.4945
0.4955
0.498
0.495
0.4965
0.4915
0.491
0.4915
0.4925
0.4945
0.496
0.4985
0.508
0.538
0.611
0.7835
0.9415
0.9705
0.9225
0.8300000000000001
0.7355
0.6745
0.631
0.598
0.5730000000000001
0.5525
0.552
0.5545
0.5525
0.5435
0.5325
0.5245
0.516
0.5105000000000001
0.5075000000000001
0.505
0.5035000000000001
0.502
0.501
0.499
0.499
0.498
0.498
0.4975
0.4975
0.4965
0.4955
0.4935
0.494
0.4955
0.4945
0.493
0.4925
0.492
0.4915
0.4935
0.4925
0.493
0.494
0.493
0.4925
0.4925
0.493
0.4925
0.4935
0.4945
0.4955
0.4975
0.4985
0.497
0.4975
0.4955
0.4945
0.4965
0.4925
0.4945
0.4945
0.494
0.4945
0.493
0.493
0.493
0.4925
0.4925
0.493
0.495
0.4915
0.493
0.494
0.4925
0.494
0.4935
0.4945
0.495
0.495
0.4945
0.4935
0.4945
0.4935
0.4935
0.493
0.494
0.4925
0.4955
0.494
0.4935
0.493
0.4935
0.495
0.4935
0.4935
0.4905
0.4925
0.4925
0.495
0.495
0.4995
0.4975
0.499
0.5005000000000001
0.498
0.5
0.4995
0.5005000000000001
0.497
0.4995
0.4995
0.5005000000000001
0.4995
0.498
0.501
0.4995
0.501
0.5005000000000001
0.5005000000000001
0.501
0.5035000000000001
0.501
0.5015000000000001
0.5015000000000001
0.501
0.501
0.5015000000000001
0.501
0.501
0.5015000000000001
0.503
0.5005000000000001
0.5015000000000001
0.5015000000000001
0.502
0.5015000000000001
0.502
0.5005000000000001
0.4995
0.5025000000000001
0.4985
0.5
0.5005000000000001
0.499
0.5
0.4975
0.4965
0.4955
0.496
0.4945
0.4955
0.4955
0.4945
0.494
0.4935
0.4925
0.4925
0.492
0.49
0.4915
0.49
0.488
0.489
0.4885
0.4875
0.4875
0.489
0.4955
0.507
0.5285
0.6065
0.739
0.8255
0.8425
0.8055
0.7515000000000001
0.6965
0.654
0.6215
0.596
0.5785
0.5655
0.5585
0.555
0.553
0.5525
0.5455
0.5395
0.529
0.5215
0.513
0.5085000000000001
0.5015000000000001
0.5005000000000001
0.4985
0.4955
0.4935
0.4925
0.494
0.4915
0.493
0.494
0.4915
0.4915
0.4915
0.492
0.4925
0.494
0.4925
0.494
0.4945
0.493
0.4915
0.4935
0.4945
0.4955
0.497
0.497
0.497
0.4995
0.4945
0.492
0.4925
0.4945
0.493
0.493
0.4945
0.4955
0.4985
0.4955
0.495
0.497
0.4945
0.4955
0.493
0.493
0.4915
0.4895
0.4955
0.493
0.493
0.4915
0.494
0.4955
0.4935
0.4955
0.4975
0.495
0.493
0.4955
0.4915
0.4935
0.4925
0.495
0.493
0.496
0.4935
0.4935
0.496
0.4925
0.492
0.4965
0.494
0.4945
0.4955
0.4975
0.495
0.4995
0.4975
0.495
0.4925
0.4955
0.495
0.4945
0.4955
0.4955
0.493
0.498
0.495
0.496
0.498
0.501
0.499
0.497
0.5005000000000001
0.4995
0.5
0.498
0.4995
0.5
0.499
0.4975
0.4985
0.4945
0.495
0.4975
0.495
0.4955
0.499
0.4975
0.4965
0.4975
0.496
0.4955
0.4955
0.493
0.4955
0.496
0.499
0.4945
0.4955
0.495
0.4945
0.4935
0.491
0.4915
0.4895
0.489
0.4885
0.4875
0.4875
0.4875
0.4885
0.4885
0.4915
0.4945
0.5045000000000001
0.5735
0.6745
0.7315
0.7395
0.711
0.6715
0.636
0.6075
0.584
0.5655
0.5515
0.5445
0.541
0.5405
0.5435
0.542
0.538
0.532
0.526
0.52
0.5155
0.512
0.5105000000000001
0.5095000000000001
0.5065000000000001
0.5065000000000001
0.504
0.5025000000000001
0.5025000000000001
0.5035000000000001
0.501
0.5015000000000001
0.5005000000000001
0.5
0.4995
0.5015000000000001
0.5005000000000001
0.501
0.504
0.5005000000000001
0.501
0.501
0.5005000000000001
0.4995
0.5015000000000001
0.5005000000000001
0.501
0.5015000000000001
0.5005000000000001
0.5005000000000001
0.501
0.4995
0.5015000000000001
0.5005000000000001
0.5
0.499
0.5
0.498
0.498
0.4965
0.4945
0.495
0.495
0.4955
0.495
0.4955
0.495
0.4955
0.4955
0.496
0.495
0.494
0.4935
0.494
0.4945
0.495
0.4945
0.495
0.4945
0.4955
0.4955
0.4955
0.495
0.494
0.4965
0.4985
0.4955
0.491
0.495
0.495
0.4985
0.496
0.4935
0.4935
0.4935
0.495
0.4945
0.496
0.4955
0.4955
0.496
0.494
0.4955
0.494
0.4945
0.493
0.494
0.4945
0.494
0.4945
0.4955
0.4955
0.497
0.4955
0.4935
0.4945
0.4955
0.4955
0.4955
0.4965
0.4955
0.4945
0.494
0.4935
0.4945
0.493
0.4925
0.494
0.494
0.4955
0.4945
0.496
0.495
0.4965
0.4965
0.4955
0.4955
0.4955
0.4955
0.4965
0.498
0.4925
0.4965
0.4985
0.4965
0.4965
0.5005000000000001
0.4995
0.4975
0.499
0.4995
0.4995
0.4995
0.4975
0.497
0.4955
0.4965
0.4945
0.4935
0.494
0.495
0.4915
0.491
0.493
0.4945
0.49
0.4915
0.493
0.4945
0.5005000000000001
0.514
0.555
0.6705
0.7895
0.837
0.8055
0.7485
0.6970000000000001
0.6495
0.615
0.589
0.5690000000000001
0.557
0.547
0.5435
0.539
0.5335
0.5265
0.5185
0.512
0.503
0.5
0.4945
0.4915
0.4925
0.492
0.4915
0.4915
0.4905
0.4935
0.493
0.4955
0.4935
0.4875
0.4925
0.4945
0.495
0.4925
0.4905
0.4965
0.4915
0.4935
0.4915
0.4955
0.493
0.4935
0.4935
0.4955
0.491
0.4905
0.49
0.4955
0.496
0.494
0.496
0.4945
0.4965
0.497
0.4945
0.4955
0.4985
0.498
0.4995
0.4985
0.4985
0.4985
0.4975
0.4995
0.497
0.498
0.4965
0.498
0.4975
0.4985
0.4975
0.4965
0.4975
0.498
0.497
0.4965
0.4955
0.495
0.495
0.4935
0.4935
0.494
0.4935
0.495
0.493
0.493
0.493
0.4965
0.495
0.495
0.494
0.4935
0.494
0.4945
0.4955
0.4955
0.496
0.4935
0.4945
0.4935
0.493
0.493
0.4935
0.4935
0.493
0.4925
0.4935
0.494
0.494
0.4925
0.4935
0.493
0.4925
0.4935
0.4935
0.4955
0.4955
0.494
0.495
0.494
0.4945
0.4965
0.4965
0.496
0.496
0.4955
0.494
0.4945
0.4945
0.495
0.4955
0.4945
0.495
0.4955
0.4955
0.4955
0.495
0.494
0.4925
0.492
0.4905
0.4905
0.4905
0.4915
0.4895
0.488
0.4875
0.489
0.4885
0.4895
0.4915
0.4935
0.508
0.609
0.754
0.835
0.839
0.7975
0.735
0.683
0.6405
0.6065
0.5795
0.5635
0.5565
0.5545
0.561
0.5700000000000001
0.5695
0.5615
0.548
0.5345
0.5245
0.5165
0.5105000000000001
0.5045000000000001
0.5005000000000001
0.497
0.4955
0.4935
0.493
0.4935
0.4925
0.492
0.4925
0.492
0.4915
0.492
0.4895
0.491
0.492
0.4925
0.492
0.492
0.4915
0.492
0.492
0.4935
0.4925
0.4925
0.495
0.4925
0.493
0.492
0.492
0.4925
0.493
0.494
0.495
0.4955
0.499
0.4965
0.4965
0.497
0.497
0.4965
0.493
0.493
0.493
0.4925
0.496
0.494
0.493
0.493
0.4925
0.4935
0.494
0.4945
0.4955
0.4945
0.4955
0.4965
0.497
0.4955
0.495
0.494
0.4935
0.493
0.493
0.492
0.4935
0.493
0.4935
0.492
0.4935
0.493
0.4935
0.494
0.493
0.493
0.4915
0.4915
0.493
0.495
0.4955
0.495
0.4975
0.4945
0.4945
0.496
0.4965
0.4975
0.4955
0.495
0.493
0.494
0.4945
0.497
0.4965
0.4955
0.4935
0.4955
0.493
0.495
0.4935
0.4965
0.4965
0.4965
0.495
0.496
0.494
0.494
0.4915
0.494
0.495
0.4925
0.495
0.4985
0.4985
0.493
0.493
0.494
0.4925
0.4925
0.494
0.498
0.4935
0.4935
0.497
0.4965
0.4965
0.4995
0.4975
0.498
0.4905
0.4955
0.51
0.6675
0.8345
0.861
0.806
0.7375
0.678
0.627
0.5945
0.5735
0.5690000000000001
0.5695
0.5695
0.5645
0.554
0.535
0.523
0.512
0.505
0.499
0.496
0.4955
0.4925
0.4935
0.494
0.4945
0.4955
0.4955
0.4965
0.497
0.498
0.4975
0.4965
0.4965
0.495
0.4965
0.4945
0.495
0.4955
0.4965
0.4965
0.497
0.4995
0.498
0.4975
0.498
0.4985
0.498
0.4975
0.497
0.496
0.4955
0.4955
0.4965
0.4955
0.4935
0.493
0.493
0.4925
0.493
0.493
0.493
0.493
0.4925
0.4915
0.4915
0.492
0.493
0.4925
0.4935
0.494
0.4945
0.4935
0.493
0.4925
0.492
0.4925
0.4935
0.495
0.496
0.497
0.4965
0.4975
0.4995
0.4965
0.4975
0.4985
0.4995
0.499
0.4995
0.4985
0.4995
0.4995
0.5
0.4995
0.4995
0.4995
0.4995
0.5015000000000001
0.5015000000000001
0.5
0.4995
0.4995
0.4995
0.4995
0.499
0.499
0.4985
0.5015000000000001
0.4995
0.4995
0.4995
0.4975
0.496
0.4955
0.4935
0.495
0.4955
0.494
0.4945
0.494
0.4935
0.494
0.494
0.494
0.494
0.494
0.494
0.494
0.493
0.4925
0.493
0.493
0.4915
0.4925
0.492
0.4925
0.4925
0.4935
0.4925
0.4915
0.4935
0.493
0.4935
0.493
0.494
0.4955
0.4955
0.497
0.499
0.4995
0.4955
0.4955
0.4955
0.495
0.4935
0.4935
0.494
0.4945
0.4945
0.494
0.4945
0.4975
0.5045000000000001
0.519
0.586
0.6990000000000001
0.7855
0.7995
0.7685
0.722
0.6775
0.6415
0.613
0.594
0.5775
0.5690000000000001
0.5660000000000001
0.5675
0.5725
0.5750000000000001
0.5655
0.551
0.5385
0.5275
0.5175
0.5105000000000001
0.5065000000000001
0.501
0.499
0.496
0.4945
0.4935
0.4925
0.4955
0.492
0.492
0.492
0.492
0.4925
0.4925
0.4915
0.4905
0.4905
0.4895
0.491
0.4905
0.4915
0.494
0.4965
0.4915
0.4925
0.4905
0.4895
0.49
0.4925
0.4935
0.4965
0.4955
0.4965
0.496
0.495
0.495
0.4945
0.494
0.4915
0.493
0.4935
0.496
0.4935
0.492
0.4925
0.4935
0.4935
0.492
0.4925
0.4915
0.491
0.4905
0.4925
0.4955
0.4945
0.4955
0.4935
0.4915
0.4925
0.4945
0.4975
0.4985
0.498
0.4965
0.495
0.495
0.495
0.4945
0.494
0.4945
0.4945
0.493
0.496
0.4965
0.496
0.494
0.4985
0.494
0.493
0.498
0.4925
0.497
0.493
0.4935
0.4955
0.496
0.4995
0.497
0.4965
0.4965
0.493
0.496
0.497
0.4945
0.497
0.495
0.494
0.4965
0.496
0.497
0.4965
0.496
0.4955
0.4975
0.4935
0.495
0.4945
0.4975
0.4935
0.494
0.4935
0.494
0.4935
0.494
0.4945
0.4955
0.493
0.4905
0.4875
0.4895
0.4895
0.488
0.4875
0.4875
0.488
0.4875
0.4875
0.4885
0.491
0.4965
0.512
0.6035
0.7435
0.8255
0.8310000000000001
0.7835
0.7265
0.674
0.6315000000000001
0.599
0.5745
0.558
0.5475
0.54
0.5345
0.534
0.533
0.5295
0.523
0.516
0.51
0.5035000000000001
0.4985
0.497
0.4955
0.494
0.4925
0.4925
0.492
0.4925
0.4925
0.4925
0.492
0.4915
0.4925
0.4915
0.493
0.4915
0.492
0.4925
0.492
0.492
0.492
0.495
0.491
0.4915
0.4915
0.4935
0.495
0.493
0.4965
0.4965
0.499
0.496
0.4975
0.4975
0.4965
0.496
0.4965
0.496
0.4945
0.495
0.4935
0.493
0.4935
0.495
0.4925
0.4935
0.4955
0.4955
0.4965
0.4965
0.4985
0.4975
0.4985
0.499
0.499
0.4975
0.4985
0.499
0.4995
0.4995
0.4995
0.499
0.5005000000000001
0.5005000000000001
0.5005000000000001
0.4995
0.4995
0.499
0.4995
0.4995
0.4995
0.4995
0.4995
0.5
0.5015000000000001
0.501
0.499
0.4995
0.5015000000000001
0.497
0.4975
0.4995
0.495
0.498
0.498
0.495
0.4975
0.499
0.4965
0.4975
0.4975
0.4975
0.4995
0.4995
0.4995
0.498
0.496
0.4955
0.4945
0.4945
0.4955
0.495
0.494
0.492
0.4925
0.493
0.4935
0.4955
0.492
0.4945
0.494
0.493
0.4945
0.4915
0.4915
0.4925
0.4935
0.4935
0.4935
0.4935
0.493
0.494
0.494
0.4945
0.495
0.4965
0.496
0.495
0.494
0.493
0.4935
0.4915
0.4945
0.4945
0.4945
0.4925
0.49
0.489
0.4885
0.4875
0.488
0.4915
0.4915
0.491
0.499
0.5125
0.5365
0.6285000000000001
0.801
0.9015
0.9115
0.8545
0.7845
0.7225
0.6725
0.6325000000000001
0.6025
0.5815
0.5605
0.5475
0.541
0.532
0.526
0.5175
0.5125
0.5065000000000001
0.499
0.4975
0.4925
0.4925
0.491
0.49
0.491
0.49
0.4905
0.4885
0.488
0.4915
0.4955
0.49
0.4955
0.4925
0.4895
0.4935
0.4935
0.4925
0.4945
0.49
0.491
0.4915
0.491
0.4895
0.4965
0.4945
0.4915
0.491
0.494
0.493
0.4965
0.4935
0.4925
0.493
0.4875
0.4905
0.4965
0.4955
0.4935
0.4945
0.494
0.498
0.498
0.497
0.495
0.4935
0.492
0.496
0.4985
0.4955
0.4955
0.4965
0.497
0.498
0.5005000000000001
0.497
0.498
0.4975
0.4995
0.4985
0.4985
0.4985
0.5
0.4975
0.497
0.4965
0.4955
0.4955
0.4955
0.495
0.495
0.495
0.4945
0.494
0.493
0.493
0.4935
0.493
0.4935
0.496
0.4925
0.494
0.4935
0.493
0.494
0.4915
0.4915
0.4925
0.4925
0.4935
0.494
0.493
0.493
0.4935
0.4925
0.492
0.493
0.4935
0.4935
0.4935
0.4935
0.494
0.4935
0.4935
0.4935
0.495
0.492
0.4925
0.4955
0.4955
0.4955
0.496
0.497
0.4975
0.497
0.4975
0.4975
0.4985
0.4985
0.4995
0.498
0.4965
0.4955
0.494
0.4925
0.492
0.4895
0.4885
0.487
0.4865
0.487
0.487
0.489
0.495
0.513
0.651
0.836
0.933
0.9315
0.8735
0.7995
0.7305
0.6775
0.637
0.6075
0.5865
0.5710000000000001
0.5595
0.5650000000000001
0.579
0.583
0.5750000000000001
0.56
0.5445
0.533
0.5225
0.515
0.5105000000000001
0.5055000000000001
0.5005000000000001
0.497
0.495
0.494
0.495
0.4945
0.4945
0.4955
0.4985
0.4965
0.4955
0.4945
0.495
0.494
0.493
0.492
0.491
0.4905
0.4905
0.4895
0.4895
0.4895
0.4905
0.4895
0.4905
0.4935
0.494
0.491
0.491
0.493
0.4915
0.491
0.4915
0.492
0.4925
0.495
0.495
0.4955
0.4955
0.4955
0.498
0.495
0.494
0.493
0.4935
0.493
0.4915
0.4915
0.492
0.4915
0.491
0.49
0.4905
0.4935
0.491
0.4905
0.4905
0.491
0.4925
0.4935
0.493
0.4925
0.4925
0.492
0.4915
0.4925
0.4925
0.4915
0.492
0.4915
0.4925
0.4885
0.4905
0.491
0.4905
0.491
0.49
0.491
0.491
0.4895
0.4905
0.491
0.4905
0.4915
0.4915
0.4915
0.4945
0.4925
0.4915
0.4915
0.4915
0.492
0.491
0.4915
0.4915
0.4925
0.491
0.492
0.4925
0.4925
0.491
0.491
0.492
0.4925
0.4905
0.491
0.491
0.4925
0.4935
0.4885
0.491
0.49
0.492
0.4935
0.4915
0.492
0.4925
0.4895
0.4915
0.491
0.493
0.4925
0.4925
0.495
0.494
0.4915
0.4925
0.4915
0.494
0.4925
0.489
0.4915
0.4905
0.4885
0.4925
0.4915
0.4945
0.4955
0.5055000000000001
0.522
0.5670000000000001
0.7325
0.901
0.593
0.5405
0.5445
0.5335
0.5235
0.5125
0.507
0.4995
0.499
0.498
0.495
0.4905
0.4905
0.493
0.4925
0.4925
0.4935
0.493
0.4945
0.494
0.4915
0.4895
0.4915
0.493
0.494
0.49
0.4925
0.497
0.4925
0.4945
0.4965
0.494
0.496
0.4955
0.4955
0.4955
0.494
0.493
0.493
0.4925
0.4915
0.4925
0.492
0.4905
0.491
0.491
0.492
0.491
0.4915
0.4905
0.49
0.4895
0.4895
0.4895
0.4915
0.4915
0.4915
0.4915
0.491
0.491
0.4925
0.491
0.4915
0.491
0.4905
0.4905
0.491
0.4915
0.491
0.4915
0.4905
0.492
0.4915
0.4935
0.4895
0.491
0.49
0.4915
0.4915
0.4915
0.4905
0.491
0.491
0.4905
0.4905
0.493
0.49
0.4905
0.4905
0.4905
0.491
0.4915
0.491
0.4915
0.492
0.492
0.4925
0.493
0.4935
0.4915
0.492
0.4935
0.4925
0.492
0.4925
0.4915
0.4915
0.4925
0.4955
0.4925
0.4955
0.4935
0.4925
0.4925
0.4925
0.4925
0.4935
0.4925
0.493
0.4925
0.4915
0.4915
0.4915
0.4925
0.4955
0.4955
0.496
0.497
0.4965
0.4975
0.4965
0.4955
0.496
0.496
0.495
0.4935
0.493
0.4925
0.492
0.49
0.4895
0.4875
0.4875
0.4855
0.487
0.486
0.4855
0.4855
0.4855
0.4875
0.4945
0.505
0.5275
0.5935
0.6995
0.7735
0.7885
0.761
0.7155
0.6705
0.6345000000000001
0.605
0.584
0.5685
0.562
0.561
0.5635
0.5695
0.5675
0.5605
0.5515
0.5335
0.525
0.5175
0.509
0.502
0.5005000000000001
0.4975
0.4945
0.4945
0.4945
0.4915
0.4905
0.491
0.4895
0.4905
0.491
0.4905
0.4915
0.4905
0.489
0.491
0.4895
0.4895
0.4915
0.4955
0.4935
0.4935
0.49
0.4905
0.4915
0.4925
0.4925
0.4915
0.4925
0.4925
0.4915
0.4915
0.4915
0.4935
0.4915
0.4945
0.4915
0.4935
0.4955
0.493
0.4935
0.4955
0.493
0.4955
0.4965
0.4965
0.4955
0.4955
0.4955
0.4935
0.493
0.4925
0.4935
0.4925
0.492
0.494
0.4925
0.491
0.492
0.4915
0.493
0.494
0.493
0.4925
0.495
0.4915
0.4915
0.4915
0.494
0.4955
0.4945
0.4945
0.493
0.494
0.495
0.4935
0.495
0.4945
0.4945
0.4935
0.4945
0.4915
0.492
0.4965
0.4955
0.4915
0.4915
0.4925
0.4925
0.497
0.497
0.496
0.494
0.493
0.4955
0.491
0.494
0.4935
0.4955
0.498
0.495
0.4955
0.4935
0.4955
0.496
0.497
0.4945
0.492
0.495
0.497
0.4935
0.4925
0.4945
0.495
0.495
0.495
0.4935
0.494
0.4915
0.49
0.489
0.489
0.4885
0.489
0.4875
0.4885
0.489
0.49
0.4935
0.5005000000000001
0.5630000000000001
0.6930000000000001
0.777
0.7865
0.7535000000000001
0.7015
0.6515
0.608
0.581
0.5615
0.5475
0.5395
0.5355
0.531
0.527
0.5225
0.5165
0.512
0.506
0.5025000000000001
0.497
0.4955
0.495
0.493
0.4925
0.4915
0.4915
0.4925
0.4945
0.495
0.496
0.4965
0.496
0.4955
0.4965
0.4935
0.495
0.495
0.4955
0.4945
0.4925
0.4915
0.492
0.492
0.4915
0.4915
0.492
0.493
0.494
0.4925
0.4915
0.4905
0.49
0.4915
0.4925
0.4905
0.491
0.491
0.491
0.4915
0.491
0.4915
0.4935
0.4895
0.491
0.491
0.4925
0.4925
0.4925
0.4925
0.4915
0.4915
0.491
0.491
0.4925
0.4915
0.4915
0.492
0.493
0.4915
0.492
0.493
0.4935
0.4935
0.493
0.492
0.4915
0.4935
0.4925
0.4925
0.4915
0.4915
0.493
0.4935
0.4955
0.4955
0.496
0.4975
0.4975
0.4975
0.498
0.497
0.497
0.497
0.4965
0.4955
0.494
0.4945
0.4935
0.493
0.493
0.493
0.493
0.495
0.491
0.4935
0.494
0.492
0.4925
0.491
0.492
0.4915
0.495
0.493
0.4985
0.4945
0.493
0.497
0.4955
0.497
0.4985
0.4975
0.498
0.4985
0.499
0.499
0.4985
0.498
0.498
0.4985
0.498
0.498
0.499
0.4995
0.5
0.498
0.4995
0.498
0.4955
0.4955
0.4955
0.4955
0.4965
0.496
0.4955
0.4955
0.4955
0.4945
0.495
0.4945
0.4935
0.4925
0.492
0.4945
0.4935
0.4915
0.4925
0.4925
0.5015000000000001
0.5145
0.5635
0.667
0.7545000000000001
0.7735
0.7475
0.7045
0.6585
0.623
0.5975
0.5705
0.555
0.5455
0.538
0.535
0.5305
0.528
0.5205
0.514
0.5065000000000001
0.5035000000000001
0.495
0.4915
0.4905
0.49
0.49
0.491
0.49
0.4895
0.4895
0.491
0.4895
0.4915
0.4915
0.493
0.4895
0.4895
0.492
0.4905
0.4945
0.4915
0.4935
0.4915
0.4955
0.4985
0.499
0.4985
0.4975
0.4925
0.494
0.4955
0.4935
0.4935
0.4905
0.4915
0.493
0.4915
0.495
0.492
0.4935
0.4955
0.498
0.495
0.4945
0.4965
0.4975
0.4925
0.4955
0.4935
0.4965
0.4925
0.497
0.499
0.4965
0.4915
0.495
0.4955
0.4965
0.4985
0.4975
0.499
0.4965
0.4965
0.497
0.498
0.4985
0.496
0.495
0.495
0.4965
0.4965
0.496
0.4955
0.495
0.4955
0.494
0.4935
0.4935
0.4935
0.493
0.494
0.493
0.4925
0.4935
0.494
0.495
0.493
0.494
0.494
0.494
0.4935
0.494
0.493
0.4935
0.494
0.4945
0.4985
0.4945
0.4935
0.494
0.4945
0.494
0.4935
0.4935
0.492
0.4925
0.4945
0.4955
0.496
0.4955
0.4965
0.4955
0.4955
0.4945
0.495
0.495
0.495
0.494
0.4945
0.493
0.4925
0.494
0.49
0.4905
0.4895
0.4895
0.489
0.4895
0.4885
0.487
0.4875
0.4875
0.4875
0.4905
0.4955
0.51
0.5795
0.7585000000000001
0.9185
0.9550000000000001
0.9135
0.837
0.765
0.7055
0.6595
0.6245
0.5995
0.5825
0.5680000000000001
0.5625
0.5595
0.5595
0.5565
0.547
0.5365
0.526
0.5175
0.511
0.5085000000000001
0.5025000000000001
0.4995
0.497
0.4945
0.4935
0.4915
0.4915
0.4915
0.4915
0.4905
0.4915
0.4925
0.493
0.491
0.49
0.491
0.49
0.4895
0.4915
0.494
0.4945
0.495
0.4975
0.4965
0.4975
0.498
0.498
0.498
0.4975
0.4975
0.498
0.4985
0.4985
0.4985
0.4985
0.4995
0.4985
0.4985
0.4975
0.4975
0.4965
0.4965
0.4955
0.494
0.495
0.4945
0.493
0.492
0.4915
0.492
0.4935
0.4925
0.4905
0.491
0.4935
0.49
0.4925
0.494
0.4955
0.4965
0.4955
0.4965
0.4975
0.4975
0.497
0.497
0.4985
0.4975
0.4975
0.4975
0.498
0.4975
0.497
0.4955
0.4955
0.4965
0.495
0.4945
0.494
0.4925
0.4925
0.494
0.4935
0.4945
0.495
0.495
0.4955
0.4955
0.495
0.4935
0.4915
0.493
0.4935
0.495
0.4945
0.4915
0.4915
0.493
0.493
0.493
0.4915
0.4895
0.494
0.492
0.496
0.493
0.494
0.492
0.4945
0.493
0.4935
0.4925
0.4935
0.4935
0.495
0.4955
0.492
0.4945
0.495
0.494
0.496
0.4955
0.496
0.4965
0.496
0.4955
0.495
0.494
0.4935
0.4955
0.4935
0.4915
0.4925
0.4925
0.4935
0.4915
0.4935
0.493
0.493
0.4935
0.4955
0.495
0.5005000000000001
0.523
0.595
0.7265
0.8125
0.8215
0.7675000000000001
0.6995
0.6395000000000001
0.5985
0.5695
0.552
0.542
0.535
0.5
0.4995
0.493
0.4945
0.491
0.4925
0.492
0.4945
0.495
0.4985
0.497
0.4945
0.494
0.492
0.4945
0.494
0.495
0.494
0.4975
0.496
0.494
0.4945
0.493
0.4965
0.4955
0.4975
0.4945
0.4945
0.4955
0.4935
0.495
0.492
0.4925
0.4925
0.492
0.492
0.4905
0.492
0.4925
0.492
0.4925
0.493
0.4935
0.4955
0.4945
0.494
0.494
0.4935
0.4945
0.4925
0.4925
0.494
0.492
0.4925
0.4925
0.493
0.4915
0.491
0.494
0.491
0.4935
0.4925
0.4915
0.492
0.493
0.493
0.4935
0.494
0.494
0.4935
0.493
0.4935
0.4925
0.4915
0.492
0.493
0.4935
0.4935
0.4915
0.4915
0.491
0.4925
0.4935
0.4955
0.4975
0.4945
0.497
0.4975
0.4975
0.4975
0.4975
0.498
0.499
0.4995
0.499
0.4995
0.4995
0.4985
0.4975
0.497
0.495
0.494
0.493
0.493
0.4945
0.4945
0.4955
0.4975
0.498
0.4995
0.4965
0.499
0.499
0.4995
0.4985
0.498
0.4975
0.497
0.4955
0.495
0.494
0.4925
0.493
0.4945
0.493
0.493
0.4925
0.4935
0.494
0.494
0.493
0.493
0.4915
0.4915
0.49
0.4905
0.489
0.4875
0.4875
0.487
0.4875
0.4875
0.4895
0.495
0.5075000000000001
0.526
0.5835
0.6795
0.7485
0.758
0.7345
0.6930000000000001
0.6515
0.6145
0.5915
0.5745
0.5645
0.5645
0.5655
0.5685
0.5705
0.5665
0.5575
0.546
0.533
0.5225
0.5155
0.508
0.5035000000000001
0.5
0.4975
0.495
0.495
0.495
0.4955
0.4955
0.4955
0.496
0.495
0.494
0.495
0.4935
0.4925
0.4925
0.493
0.492
0.4915
0.4915
0.493
0.4915
0.492
0.4915
0.4925
0.4915
0.491
0.4895
0.4895
0.491
0.492
0.494
0.4925
0.4915
0.493
0.4935
0.4905
0.4925
0.491
0.4915
0.4895
0.4925
0.491
0.4935
0.4935
0.491
0.4925
0.4955
0.4925
0.491
0.492
0.494
0.493
0.4935
0.4955
0.4975
0.495
0.499
0.4955
0.4945
0.4945
0.493
0.4965
0.4965
0.4965
0.496
0.494
0.495
0.494
0.494
0.4915
0.493
0.4955
0.495
0.493
0.4935
0.492
0.493
0.494
0.497
0.496
0.4975
0.496
0.4955
0.4965
0.4945
0.493
0.4985
0.4985
0.4945
0.4965
0.4945
0.497
0.5005000000000001
0.4995
0.5
0.499
0.5005000000000001
0.4965
0.496
0.4945
0.49
0.494
0.492
0.4965
0.495
0.4975
0.4955
0.4965
0.4965
0.492
0.4955
0.4955
0.494
0.4965
0.499
0.4975
0.4955
0.4945
0.4925
0.491
0.4915
0.4895
0.489
0.488
0.4885
0.49
0.4905
0.4955
0.5
0.5675
0.7225
0.841
0.8685
0.8335
0.7725
0.7125
0.664
0.6245
0.594
0.5715
0.556
0.548
0.5395
0.536
0.5315
0.5275
0.5195
0.5135
0.508
0.504
0.501
0.4995
0.4985
0.4965
0.4945
0.4945
0.4925
0.493
0.494
0.4945
0.495
0.496
0.497
0.4965
0.498
0.499
0.4975
0.4975
0.4985
0.4955
0.4965
0.4955
0.4955
0.494
0.494
0.4935
0.494
0.494
0.493
0.493
0.4925
0.493
0.4945
0.491
0.491
0.4915
0.4915
0.492
0.4925
0.4925
0.4925
0.4925
0.493
0.4925
0.4925
0.493
0.492
0.4905
0.4935
0.4945
0.4925
0.4925
0.4925
0.494
0.494
0.495
0.4965
0.4965
0.4995
0.4975
0.4975
0.499
0.498
0.499
0.4995
0.4995
0.4995
0.499
0.4985
0.498
0.4985
0.4975
0.4955
0.496
0.495
0.4945
0.494
0.4945
0.4945
0.4935
0.4955
0.4925
0.4915
0.4915
0.4905
0.4915
0.4935
0.4955
0.496
0.4965
0.4965
0.496
0.4965
0.4965
0.498
0.498
0.498
0.498
0.498
0.498
0.4975
0.4975
0.4975
0.4975
0.4965
0.495
0.4965
0.492
0.492
0.4935
0.4925
0.493
0.4925
0.492
0.4905
0.4935
0.4955
0.4985
0.4965
0.495
0.493
0.4935
0.496
0.4975
0.4935
0.4925
0.4935
0.4935
0.4945
0.4945
0.4965
0.4925
0.4925
0.493
0.493
0.492
0.4915
0.49
0.4885
0.4885
0.4885
0.4885
0.489
0.4885
0.489
0.49
0.4925
0.5035000000000001
0.5355
0.6035
0.731
0.8285
0.855
0.8205
0.7635000000000001
0.6985
0.6535
0.6185
0.5915
0.5710000000000001
0.562
0.553
0.5535
0.5545
0.546
0.535
0.5255
0.5155
0.5085000000000001
0.501
0.5
0.493
0.4935
0.4945
0.49
0.489
0.4895
0.4905
0.4885
0.491
0.49
0.49
0.4915
0.491
0.49
0.4925
0.4915
0.492
0.4965
0.4955
0.4935
0.4915
0.4905
0.493
0.4965
0.4915
0.4885
0.491
0.491
0.4915
0.4975
0.4925
0.495
0.4925
0.49
0.492
0.493
0.494
0.4955
0.4975
0.498
0.4915
0.4945
0.494
0.4945
0.494
0.492
0.492
0.491
0.49
0.495
0.493
0.4925
0.492
0.4925
0.4955
0.4945
0.493
0.4895
0.493
0.492
0.4915
0.4925
0.4945
0.496
0.4975
0.4975
0.4975
0.4975
0.498
0.4975
0.497
0.496
0.498
0.4965
0.4965
0.495
0.4945
0.4925
0.493
0.493
0.494
0.4935
0.4935
0.4925
0.4915
0.4925
0.4945
0.4905
0.4925
0.493
0.4935
0.4935
0.493
0.493
0.4925
0.4945
0.4965
0.4965
0.4975
0.4975
0.497
0.4965
0.4975
0.4985
0.4985
0.4995
0.4995
0.5005000000000001
0.4995
0.498
0.4975
0.4975
0.4955
0.495
0.4945
0.4935
0.492
0.492
0.494
0.4905
0.4915
0.489
0.489
0.4895
0.4885
0.488
0.4895
0.4935
0.502
0.583
0.6910000000000001
0.7505000000000001
0.7475
0.7125
0.6675
0.6285000000000001
0.5985
0.5755
0.5575
0.545
0.539
0.5385
0.5395
0.5415
0.54
0.5345
0.529
0.5225
0.5115000000000001
0.507
0.503
0.503
0.4995
0.498
0.4965
0.4955
0.4955
0.496
0.4965
0.4965
0.497
0.498
0.496
0.4955
0.495
0.4945
0.493
0.493
0.492
0.492
0.493
0.493
0.494
0.4945
0.4955
0.4915
0.4915
0.4915
0.4925
0.494
0.493
0.4925
0.4925
0.493
0.493
0.493
0.495
0.4965
0.497
0.497
0.498
0.499
0.4985
0.4985
0.4995
0.5
0.4995
0.4995
0.4995
0.4995
0.5
0.4995
0.5
0.5
0.4995
0.501
0.4995
0.4995
0.499
0.4995
0.5005000000000001
0.5005000000000001
0.5
0.5005000000000001
0.4985
0.5005000000000001
0.4995
0.499
0.499
0.498
0.5
0.499
0.4985
0.499
0.499
0.4985
0.499
0.499
0.4955
0.4985
0.4955
0.496
0.4955
0.495
0.4955
0.495
0.4945
0.495
0.4975
0.4935
0.4935
0.4945
0.4935
0.4955
0.496
0.493
0.4925
0.4915
0.4905
0.49
0.494
0.493
0.492
0.4925
0.492
0.493
0.4925
0.493
0.4935
0.494
0.4945
0.4945
0.494
0.4945
0.494
0.494
0.494
0.494
0.494
0.4945
0.4935
0.4945
0.494
0.4955
0.4935
0.4925
0.494
0.4925
0.4925
0.4925
0.495
0.4955
0.4995
0.498
0.4965
0.4965
0.4955
0.494
0.4935
0.4915
0.491
0.4915
0.4885
0.4935
0.4975
0.5105000000000001
0.542
0.681
0.9035
0.9995
0.9455
0.8315
0.735
0.683
0.6395000000000001
0.6035
0.581
0.5695
0.5985
0.6365000000000001
0.6315000000000001
0.6075
0.5765
0.5335
0.4995
0.4955
0.495
0.492
0.4955
0.4925
0.495
0.4935
0.4915
0.49
0.491
0.489
0.4945
0.493
0.489
0.4895
0.4885
0.4895
0.4925
0.4915
0.491
0.492
0.493
0.494
0.493
0.4895
0.491
0.4885
0.4905
0.4905
0.491
0.489
0.4895
0.4885
0.4895
0.489
0.4895
0.4915
0.491
0.4915
0.4925
0.493
0.4925
0.4925
0.492
0.4915
0.492
0.491
0.4915
0.4915
0.491
0.4905
0.49
0.4905
0.491
0.4915
0.4925
0.4935
0.4905
0.494
0.496
0.495
0.491
0.4925
0.4925
0.494
0.491
0.492
0.492
0.493
0.4925
0.492
0.4915
0.4905
0.4915
0.4895
0.49
0.4915
0.4925
0.4915
0.491
0.4915
0.491
0.49
0.4905
0.4915
0.4915
0.491
0.4915
0.4915
0.4915
0.4935
0.492
0.492
0.4925
0.492
0.4915
0.4915
0.492
0.493
0.4935
0.494
0.4955
0.4955
0.495
0.498
0.495
0.494
0.4955
0.4915
0.492
0.4915
0.4915
0.4925
0.4925
0.4915
0.492
0.493
0.4945
0.495
0.4945
0.4945
0.4955
0.4935
0.4935
0.491
0.4895
0.49
0.4875
0.486
0.486
0.4855
0.4855
0.4855
0.488
0.4935
0.5055000000000001
0.551
0.6890000000000001
0.8475
0.9235
0.917
0.863
0.793
0.7305
0.6815
0.643
0.6145
0.596
0.583
0.578
0.577
0.5765
0.5700000000000001
0.5565
0.545
0.5335
0.5195
0.512
0.5055000000000001
0.4995
0.4955
0.492
0.49
0.489
0.489
0.49
0.4875
0.489
0.4895
0.4875
0.4875
0.488
0.488
0.488
0.488
0.491
0.489
0.4895
0.4905
0.4885
0.4895
0.49
0.49
0.4875
0.4875
0.4885
0.4885
0.4885
0.4875
0.4875
0.488
0.488
0.4885
0.4895
0.49
0.4895
0.4895
0.489
0.4895
0.49
0.491
0.4895
0.489
0.49
0.489
0.4915
0.4925
0.4915
0.4915
0.4895
0.4925
0.491
0.49
0.487
0.4905
0.4905
0.489
0.489
0.4905
0.491
0.49
0.491
0.4915
0.492
0.494
0.493
0.4915
0.4915
0.49
0.489
0.4895
0.4875
0.49
0.4915
0.4895
0.49
0.4885
0.491
0.4925
0.49
0.4865
0.49
0.4935
0.4905
0.489
0.49
0.4875
0.4915
0.49
0.4905
0.4895
0.4905
0.4945
0.491
0.4925
0.4915
0.4945
0.4915
0.4925
0.4905
0.4935
0.492
0.4915
0.4915
0.4935
0.4935
0.4935
0.4925
0.493
0.493
0.491
0.4945
0.494
0.489
0.493
0.4925
0.4895
0.493
0.493
0.4935
0.494
0.49
0.49
0.4895
0.493
0.4865
0.491
0.4975
0.5085000000000001
0.5475
0.7215
0.9305
1.0305
1.0145
0.937
0.8485
0.7685
0.7045
0.6545
0.6175
0.5915
0.5745
0.5645
0.561
0.5595
0.552
0.5425
0.531
0.5215
0.5125
0.5055000000000001
0.5015000000000001
0.499
0.498
0.4955
0.4935
0.4915
0.4905
0.4915
0.4915
0.4925
0.4915
0.492
0.492
0.4915
0.4905
0.4895
0.4895
0.49
0.4905
0.4895
0.489
0.4875
0.4875
0.4885
0.4895
0.489
0.4875
0.488
0.487
0.4875
0.487
0.4865
0.4865
0.4865
0.4865
0.4865
0.487
0.4865
0.487
0.4865
0.487
0.4875
0.49
0.4865
0.487
0.4865
0.4875
0.4885
0.489
0.4885
0.4875
0.4865
0.488
0.489
0.489
0.4895
0.4865
0.4875
0.487
0.487
0.487
0.4875
0.488
0.4885
0.489
0.489
0.489
0.4885
0.489
0.4875
0.4865
0.486
0.4875
0.4885
0.4885
0.489
0.4885
0.4895
0.4905
0.4905
0.489
0.4895
0.489
0.4895
0.489
0.4905
0.4895
0.491
0.49
0.489
0.4885
0.4885
0.4875
0.4915
0.4905
0.49
0.49
0.49
0.49
0.4915
0.4935
0.4925
0.494
0.4895
0.4915
0.4905
0.4905
0.4895
0.491
0.4905
0.49
0.49
0.49
0.49
0.49
0.4905
0.489
0.4915
0.4895
0.4925
0.4925
0.493
0.4915
0.491
0.4915
0.4905
0.4945
0.4945
0.4935
0.497
0.496
0.4965
0.4965
0.4925
0.491
0.4935
0.4925
0.491
0.4915
0.4915
0.49
0.492
0.4925
0.4915
0.4915
0.4925
0.498
0.507
0.517
0.596
0.7275
0.8105
0.8200000000000001
0.7785
0.7235
0.6705
0.6295000000000001
0.5975
0.5740000000000001
0.554
0.5445
0.5385
0.537
0.534
0.532
0.525
0.5175
0.513
0.505
0.4985
0.495
0.4935
0.49
0.4885
0.4875
0.4855
0.4845
0.4855
0.4865
0.4885
0.4875
0.491
0.4885
0.49
0.491
0.492
0.49
0.4895
0.489
0.489
0.4895
0.4915
0.4925
0.489
0.485
0.487
0.489
0.4875
0.4875
0.493
0.49
0.49
0.4895
0.4875
0.487
0.4905
0.487
0.4905
0.486
0.4895
0.4905
0.4925
0.4915
0.4905
0.491
0.4955
0.4915
0.491
0.4915
0.495
0.4905
0.4945
0.4915
0.4905
0.493
0.488
0.49
0.4915
0.4915
0.493
0.492
0.4945
0.491
0.4915
0.4915
0.4915
0.4915
0.4915
0.4935
0.493
0.4955
0.492
0.493
0.494
0.495
0.494
0.494
0.4945
0.4975
0.495
0.4945
0.494
0.4955
0.4945
0.495
0.4955
0.4955
0.4965
0.497
0.4965
0.497
0.4965
0.4965
0.496
0.4965
0.4965
0.4975
0.4975
0.4985
0.499
0.4965
0.496
0.4965
0.496
0.4955
0.4955
0.4965
0.4965
0.497
0.4965
0.497
0.4975
0.498
0.4975
0.497
0.496
0.4965
0.4955
0.493
0.4915
0.4905
0.489
0.4885
0.487
0.4855
0.4845
0.484
0.4835
0.483
0.485
0.487
0.489
0.499
0.5795
0.7615000000000001
0.8995
0.9245
0.8805000000000001
0.8065
0.7385
0.682
0.6385000000000001
0.6055
0.583
0.5695
0.561
0.56
0.5730000000000001
0.581
0.5785
0.5670000000000001
0.551
0.5375
0.5275
0.5185
0.5125
0.5075000000000001
0.5045000000000001
0.5005000000000001
0.4975
0.4965
0.4955
0.4965
0.495
0.4945
0.4955
0.4955
0.4945
0.494
0.4935
0.493
0.494
0.494
0.4945
0.494
0.4945
0.494
0.4945
0.4945
0.4955
0.495
0.495
0.495
0.494
0.4945
0.4955
0.4955
0.4955
0.4955
0.494
0.4945
0.4935
0.4935
0.4965
0.4915
0.494
0.4945
0.4945
0.4945
0.4945
0.4935
0.4935
0.493
0.491
0.4895
0.49
0.4895
0.4885
0.4885
0.4875
0.4885
0.4895
0.49
0.4905
0.4905
0.49
0.4895
0.4895
0.4875
0.4895
0.4855
0.4875
0.4875
0.4875
0.4875
0.4885
0.489
0.4905
0.4895
0.4895
0.489
0.4895
0.4895
0.491
0.4875
0.4895
0.489
0.4885
0.4885
0.489
0.488
0.4875
0.4885
0.4905
0.4885
0.4885
0.489
0.4895
0.489
0.492
0.4895
0.489
0.4915
0.492
0.4875
0.4895
0.4895
0.489
0.4885
0.492
0.491
0.491
0.49
0.4895
0.4905
0.4905
0.4925
0.492
0.4905
0.491
0.4905
0.4905
0.4905
0.489
0.4935
0.4895
0.4895
0.4895
0.4885
0.4885
0.489
0.491
0.492
0.4905
0.4905
0.4905
0.4895
0.491
0.4895
0.49
0.4885
0.4865
0.4855
0.486
0.4865
0.486
0.485
0.486
0.4855
0.487
0.491
0.5
0.5175
0.5485
0.6565
0.8265
0.923
0.9215
0.8655
0.7895
0.7235
0.6705
0.629
0.5985
0.5765
0.559
0.5495
0.5435
0.5395
0.534
0.526
0.5165
0.509
0.5025000000000001
0.497
0.495
0.4935
0.4875
0.486
0.485
0.485
0.486
0.4845
0.485
0.4855
0.4865
0.489
0.4875
0.4875
0.4905
0.491
0.4865
0.486
0.4875
0.487
0.486
0.486
0.4865
0.486
0.4875
0.4885
0.4875
0.4875
0.4895
0.4885
0.49
0.4895
0.4865
0.491
0.4885
0.4905
0.488
0.4895
0.4895
0.491
0.4885
0.49
0.491
0.4925
0.4895
0.488
0.4875
0.4885
0.488
0.489
0.4905
0.488
0.4865
0.486
0.4895
0.486
0.4885
0.4875
0.488
0.4885
0.488
0.4885
0.492
0.4895
0.491
0.4925
0.4895
0.4895
0.4915
0.491
0.4935
0.489
0.488
0.4905
0.492
0.491
0.4915
0.49
0.4935
0.4905
0.4905
0.492
0.4905
0.4925
0.4945
0.4905
0.493
0.4895
0.4945
0.4895
0.4935
0.4905
0.4955
0.4925
0.4895
0.491
0.492
0.4925
0.49
0.488
0.4935
0.489
0.4915
0.4935
0.4925
0.491
0.4955
0.4925
0.4925
0.493
0.4935
0.4945
0.491
0.492
0.4905
0.4885
0.4865
0.4865
0.4855
0.485
0.4845
0.4845
0.484
0.4845
0.486
0.4885
0.4995
0.5155
0.5680000000000001
0.7020000000000001
0.8075
0.835
0.8085
0.757
0.7030000000000001
0.6555
0.6225
0.598
0.5795
0.5705
0.5655
0.5655
0.5635
0.5615
0.553
0.5415
0.5305
0.52
0.511
0.5055000000000001
0.5015000000000001
0.4995
0.4985
0.496
0.494
0.4935
0.494
0.491
0.493
0.4925
0.4925
0.4935
0.4925
0.4915
0.4915
0.4915
0.491
0.4905
0.489
0.4915
0.4875
0.4875
0.4875
0.4875
0.4885
0.4895
0.4895
0.4885
0.4875
0.4885
0.488
0.4885
0.4875
0.487
0.487
0.489
0.4885
0.4875
0.4885
0.489
0.4885
0.4885
0.489
0.4895
0.4905
0.492
0.493
0.4935
0.4935
0.4935
0.4925
0.493
0.4925
0.4925
0.492
0.491
0.49
0.49
0.49
0.49
0.4895
0.49
0.489
0.4875
0.4885
0.4885
0.4895
0.4905
0.4895
0.489
0.4885
0.489
0.489
0.4895
0.4905
0.491
0.4865
0.4895
0.49
0.4905
0.4905
0.49
0.49
0.4905
0.49
0.4895
0.4885
0.4895
0.489
0.4895
0.4895
0.489
0.49
0.4905
0.4905
0.4915
0.4915
0.4915
0.4915
0.491
0.4915
0.491
0.493
0.4905
0.4895
0.49
0.49
0.4905
0.4915
0.4895
0.4905
0.489
0.4905
0.491
0.4905
0.4915
0.4895
0.4905
0.4895
0.491
0.4915
0.491
0.4915
0.493
0.4905
0.49
0.4905
0.4915
0.491
0.4905
0.492
0.4915
0.493
0.4915
0.4915
0.4925
0.491
0.4895
0.488
0.489
0.489
0.489
0.4875
0.485
0.4865
0.4875
0.486
0.491
0.5035000000000001
0.5585
0.7355
0.9185
0.9825
0.9475
0.87
0.7885
0.7205
0.6655
0.6265000000000001
0.594
0.5715
0.558
0.561
0.5760000000000001
0.582
0.5715
0.5585
0.541
0.5285
0.5195
0.514
0.512
0.507
0.504
0.4995
0.4955
0.4965
0.4935
0.4905
0.4925
0.49
0.489
0.4915
0.4885
0.4855
0.488
0.4875
0.491
0.4865
0.4845
0.4875
0.487
0.486
0.4895
0.4875
0.488
0.4895
0.4915
0.4915
0.4885
0.484
0.4915
0.492
0.4865
0.4905
0.488
0.4885
0.4895
0.4885
0.49
0.4895
0.493
0.493
0.4935
0.4925
0.4915
0.491
0.494
0.49
0.4915
0.49
0.491
0.4905
0.4935
0.4925
0.4925
0.493
0.4935
0.4925
0.495
0.4925
0.4935
0.4925
0.491
0.491
0.491
0.49
0.4915
0.493
0.492
0.4915
0.49
0.4895
0.4895
0.4885
0.489
0.488
0.489
0.4885
0.491
0.492
0.492
0.489
0.49
0.4905
0.49
0.49
0.4915
0.491
0.491
0.49
0.4885
0.4885
0.49
0.4895
0.4895
0.4885
0.4885
0.488
0.4885
0.4885
0.4895
0.489
0.4885
0.489
0.49
0.4885
0.49
0.4895
0.49
0.4905
0.4885
0.49
0.4915
0.49
0.488
0.4895
0.4885
0.4905
0.4885
0.4875
0.4875
0.4875
0.4875
0.4865
0.485
0.485
0.4855
0.4865
0.4875
0.4925
0.5055000000000001
0.5425
0.685
0.9395
1.137
1.1865
1.1255
1.0165
0.9075
0.8155
0.7445
0.6895
0.6465
0.616
0.593
0.586
0.5855
0.5795
0.5665
0.5505
0.537
0.525
0.5135
0.5055000000000001
0.4985
0.494
0.49
0.488
0.4865
0.4855
0.485
0.4835
0.4835
0.484
0.4835
0.4835
0.484
0.4855
0.4845
0.485
0.4855
0.4875
0.4835
0.4845
0.485
0.486
0.4855
0.485
0.485
0.485
0.487
0.4855
0.486
0.4865
0.486
0.4855
0.485
0.4855
0.4855
0.486
0.4875
0.484
0.484
0.484
0.4845
0.4855
0.487
0.4885
0.489
0.4895
0.49
0.49
0.4895
0.4905
0.489
0.488
0.4875
0.4875
0.4875
0.487
0.487
0.487
0.4875
0.4865
0.485
0.484
0.4865
0.487
0.4845
0.4845
0.486
0.4855
0.484
0.4835
0.483
0.4835
0.4835
0.485
0.4855
0.486
0.485
0.485
0.4845
0.4865
0.4855
0.4875
0.487
0.4845
0.487
0.4865
0.4875
0.486
0.4875
0.487
0.487
0.4865
0.4855
0.485
0.486
0.4845
0.4875
0.489
0.4895
0.487
0.4885
0.486
0.489
0.4865
0.4875
0.4875
0.488
0.4865
0.4855
0.4855
0.4835
0.4855
0.4875
0.486
0.4875
0.4905
0.487
0.4865
0.487
0.4855
0.4865
0.4895
0.4895
0.487
0.486
0.4895
0.487
0.4875
0.491
0.487
0.4885
0.488
0.49
0.486
0.4895
0.4835
0.483
0.483
0.4835
0.4855
0.4855
0.49
0.514
0.769
1.055
1.1275
1.0515
0.934
0.67
0.6025
0.584
0.5535
0.533
0.5205
0.513
0.5065000000000001
0.4995
0.496
0.489
0.488
0.4895
0.489
0.486
0.4905
0.4875
0.4865
0.4855
0.4875
0.4885
0.4875
0.489
0.4875
0.488
0.4875
0.4875
0.4865
0.4865
0.486
0.4865
0.486
0.4855
0.4845
0.484
0.4835
0.4845
0.4835
0.483
0.483
0.4805
0.4835
0.4825
0.483
0.4835
0.4815
0.482
0.4815
0.482
0.4825
0.4815
0.4825
0.4835
0.4835
0.4825
0.483
0.4835
0.484
0.484
0.484
0.4845
0.482
0.482
0.482
0.483
0.4835
0.4835
0.4835
0.4835
0.4825
0.4825
0.483
0.4835
0.483
0.4835
0.4825
0.4835
0.484
0.4855
0.4845
0.484
0.484
0.484
0.483
0.483
0.483
0.4835
0.4835
0.485
0.4835
0.4835
0.487
0.4835
0.4835
0.4845
0.4835
0.4855
0.486
0.4855
0.485
0.4845
0.485
0.4855
0.4875
0.4875
0.488
0.4875
0.4895
0.4855
0.487
0.487
0.4865
0.4855
0.485
0.4845
0.4845
0.484
0.484
0.484
0.485
0.4875
0.4825
0.4845
0.4845
0.4855
0.4855
0.4855
0.4855
0.485
0.484
0.484
0.484
0.485
0.485
0.487
0.486
0.4845
0.487
0.486
0.485
0.4845
0.483
0.4845
0.481
0.4825
0.482
0.4835
0.483
0.483
0.483
0.4885
0.4895
0.499
0.5185
0.6005
0.7775
0.9125
0.9455
0.9045
0.8310000000000001
0.751
0.6915
0.645
0.61
0.5825
0.5635
0.5495
0.5355
0.534
0.5315
0.5255
0.517
0.509
0.5015000000000001
0.4955
0.4935
0.4895
0.4865
0.4835
0.483
0.4825
0.4835
0.4815
0.482
0.4835
0.4825
0.4815
0.482
0.4825
0.4855
0.4845
0.4835
0.484
0.486
0.4885
0.484
0.4835
0.483
0.484
0.4845
0.4845
0.4835
0.482
0.4835
0.482
0.484
0.483
0.483
0.482
0.4835
0.4845
0.486
0.487
0.487
0.489
0.4885
0.487
0.486
0.4855
0.4885
0.482
0.485
0.4845
0.489
0.4895
0.486
0.487
0.487
0.4855
0.487
0.486
0.4885
0.4875
0.4895
0.49
0.4895
0.4905
0.489
0.4895
0.489
0.4885
0.4905
0.49
0.485
0.4885
0.4885
0.4895
0.4895
0.4895
0.489
0.4925
0.4895
0.49
0.49
0.4915
0.488
0.49
0.487
0.4925
0.493
0.49
0.4905
0.4905
0.4925
0.491
0.4905
0.487
0.4875
0.4865
0.486
0.4865
0.4885
0.4875
0.4865
0.4875
0.4875
0.4885
0.49
0.4885
0.4865
0.4865
0.486
0.486
0.4875
0.49
0.491
0.4885
0.491
0.49
0.491
0.4875
0.491
0.491
0.4885
0.4865
0.4845
0.4835
0.481
0.4825
0.4835
0.4845
0.484
0.4905
0.5
0.515
0.5455
0.6905
0.878
0.9735
0.9695
0.9045
0.8245
0.754
0.7005
0.66
0.6285000000000001
0.603
0.5875
0.5815
0.5875
0.596
0.5935
0.5815
0.5645
0.55
0.5325
0.5225
0.514
0.509
0.5035000000000001
0.4995
0.4965
0.494
0.4925
0.4915
0.491
0.491
0.4895
0.4895
0.4895
0.489
0.4885
0.4895
0.4895
0.4895
0.49
0.4895
0.4895
0.4895
0.489
0.489
0.4885
0.489
0.4885
0.4885
0.4895
0.4895
0.49
0.492
0.491
0.4895
0.4885
0.4885
0.487
0.4865
0.486
0.486
0.4865
0.4875
0.484
0.483
0.483
0.4835
0.483
0.483
0.485
0.4855
0.4865
0.487
0.4875
0.488
0.489
0.4885
0.4895
0.491
0.4905
0.491
0.4905
0.49
0.49
0.49
0.4875
0.4865
0.4865
0.485
0.4855
0.485
0.484
0.4845
0.4845
0.4845
0.4855
0.4835
0.4835
0.4835
0.484
0.4835
0.4835
0.4835
0.4835
0.4845
0.4845
0.4845
0.4845
0.483
0.483
0.4825
0.4835
0.484
0.484
0.4835
0.4835
0.4835
0.4845
0.485
0.486
0.4815
0.4825
0.4835
0.4835
0.4845
0.485
0.4855
0.4845
0.4845
0.484
0.484
0.4845
0.486
0.4835
0.483
0.4835
0.4835
0.4855
0.4855
0.4855
0.485
0.485
0.4845
0.4845
0.484
0.4845
0.4845
0.4865
0.487
0.485
0.4845
0.4835
0.484
0.4845
0.484
0.4835
0.483
0.4845
0.482
0.4815
0.4815
0.482
0.48
0.4815
0.4805
0.47950000000000004
0.47950000000000004
0.483
0.484
0.4855
0.4975
0.5655
0.7915
0.9715
1.0115
0.9545
0.863
0.7715
0.7030000000000001
0.649
0.6155
0.5915
0.5760000000000001
0.5700000000000001
0.5660000000000001
0.558
0.5495
0.538
0.5245
0.5135
0.507
0.5015000000000001
0.4955
0.497
0.4945
0.491
0.489
0.486
0.486
0.4855
0.4845
0.483
0.482
0.484
0.4815
0.481
0.483
0.482
0.484
0.4845
0.4835
0.483
0.483
0.4855
0.4855
0.4815
0.4835
0.47950000000000004
0.486
0.4855
0.4825
0.4885
0.487
0.482
0.485
0.4865
0.484
0.4815
0.4845
0.4875
0.4825
0.4825
0.4865
0.4835
0.4835
0.4845
0.486
0.487
0.4865
0.485
0.482
0.487
0.4865
0.4865
0.488
0.487
0.4885
0.487
0.483
0.487
0.49
0.4885
0.488
0.4855
0.4835
0.4855
0.4825
0.4835
0.4845
0.485
0.485
0.486
0.4865
0.4855
0.4855
0.4865
0.4855
0.485
0.485
0.486
0.485
0.4845
0.485
0.485
0.487
0.4875
0.4885
0.4895
0.4895
0.49
0.4915
0.4915
0.4915
0.491
0.4915
0.4905
0.492
0.491
0.491
0.4915
0.4915
0.494
0.4915
0.492
0.4925
0.492
0.4915
0.4925
0.492
0.491
0.49
0.491
0.4895
0.4885
0.4875
0.4875
0.4875
0.4865
0.486
0.4855
0.486
0.4855
0.4855
0.4825
0.484
0.4835
0.481
0.4805
0.481
0.4815
0.4825
0.4855
0.4945
0.5075000000000001
0.5485
0.7085
0.9155
1.0325
1.0235
0.9455
0.851
0.772
0.7065
0.654
0.6175
0.589
0.5805
0.6155
0.651
0.6545
0.634
0.6045
0.5750000000000001
0.5515
0.533
0.5205
0.5115000000000001
0.5045000000000001
0.499
0.4955
0.493
0.491
0.49
0.4885
0.489
0.4875
0.486
0.484
0.4835
0.4825
0.483
0.4835
0.485
0.4855
0.486
0.4855
0.486
0.4855
0.485
0.4855
0.4835
0.4835
0.4835
0.4825
0.483
0.483
0.482
0.482
0.4805
0.4805
0.4805
0.481
0.4815
0.4815
0.483
0.4835
0.4835
0.4835
0.4835
0.4825
0.4825
0.482
0.481
0.47950000000000004
0.48
0.481
0.481
0.4815
0.4815
0.4815
0.4825
0.483
0.4825
0.482
0.482
0.482
0.482
0.4815
0.4825
0.482
0.483
0.481
0.4815
0.482
0.482
0.4815
0.482
0.4815
0.481
0.481
0.4815
0.482
0.483
0.4845
0.4845
0.4835
0.485
0.4855
0.4845
0.4845
0.484
0.4835
0.483
0.483
0.4825
0.4825
0.4835
0.4835
0.4845
0.485
0.483
0.4835
0.4855
0.4845
0.4825
0.4835
0.4835
0.4825
0.4835
0.4835
0.485
0.484
0.486
0.4835
0.483
0.4855
0.483
0.482
0.4835
0.484
0.487
0.484
0.486
0.485
0.4875
0.4885
0.4875
0.485
0.4855
0.487
0.4855
0.487
0.485
0.4855
0.4875
0.486
0.486
0.489
0.4885
0.487
0.4875
0.486
0.4865
0.484
0.48
0.481
0.47900000000000004
0.483
0.4805
0.4875
0.5
0.612
0.905
1.101
1.0985
1.0050000000000001
0.8865000000000001
0.795
0.7235
0.667
0.627
0.601
0.5845
0.583
0.5750000000000001
0.5605
0.5085000000000001
0.4825
0.48
0.484
0.4805
0.481
0.4835
0.481
0.4825
0.4805
0.483
0.486
0.482
0.4815
0.485
0.484
0.4815
0.486
0.4885
0.485
0.486
0.4855
0.485
0.4855
0.4845
0.4855
0.483
0.4835
0.483
0.484
0.4845
0.486
0.4855
0.486
0.4855
0.4865
0.4865
0.486
0.486
0.4865
0.487
0.4875
0.4875
0.4865
0.486
0.4855
0.4855
0.4845
0.483
0.4825
0.482
0.481
0.4825
0.47900000000000004
0.47950000000000004
0.4815
0.481
0.482
0.4825
0.483
0.482
0.4825
0.4845
0.4825
0.4825
0.484
0.484
0.4845
0.484
0.483
0.4835
0.4835
0.4835
0.4825
0.482
0.4815
0.482
0.4815
0.4825
0.483
0.4805
0.48
0.48
0.4815
0.4825
0.4815
0.483
0.481
0.481
0.482
0.482
0.482
0.483
0.481
0.4815
0.47850000000000004
0.48
0.481
0.4815
0.4825
0.4835
0.485
0.4835
0.4825
0.482
0.4825
0.482
0.4825
0.483
0.4815
0.4815
0.481
0.482
0.481
0.482
0.4825
0.4825
0.483
0.482
0.4815
0.482
0.483
0.4825
0.4825
0.482
0.4835
0.481
0.47950000000000004
0.47950000000000004
0.47950000000000004
0.47900000000000004
0.47950000000000004
0.47950000000000004
0.482
0.4835
0.484
0.4865
0.491
0.4985
0.522
0.5675
0.7395
0.9915
1.1400000000000001
1.1475
1.061
0.9485
0.8485
0.7645000000000001
0.6970000000000001
0.647
0.612
0.5865
0.5675
0.5595
0.5565
0.5495
0.538
0.5255
0.515
0.5065000000000001
0.4995
0.4915
0.489
0.486
0.4835
0.481
0.47950000000000004
0.47850000000000004
0.47750000000000004
0.47750000000000004
0.47850000000000004
0.47850000000000004
0.47750000000000004
0.47800000000000004
0.47550000000000003
0.47700000000000004
0.47850000000000004
0.47900000000000004
0.47850000000000004
0.482
0.4815
0.483
0.484
0.4855
0.4835
0.4835
0.4835
0.483
0.4825
0.482
0.482
0.48
0.47900000000000004
0.47950000000000004
0.47950000000000004
0.481
0.47950000000000004
0.48
0.4805
0.4815
0.47950000000000004
0.47900000000000004
0.47950000000000004
0.47800000000000004
0.47800000000000004
0.47850000000000004
0.4825
0.47900000000000004
0.4815
0.482
0.48
0.47950000000000004
0.47900000000000004
0.482
0.4815
0.47900000000000004
0.4805
0.4815
0.48
0.48
0.4815
0.4825
0.4835
0.4825
0.483
0.48
0.47900000000000004
0.4835
0.481
0.4805
0.4815
0.485
0.481
0.47950000000000004
0.481
0.47900000000000004
0.4805
0.47950000000000004
0.4825
0.47950000000000004
0.483
0.4845
0.484
0.4835
0.4835
0.4835
0.4845
0.4845
0.4835
0.4865
0.487
0.4885
0.4885
0.483
0.4895
0.483
0.483
0.4845
0.4845
0.4815
0.482
0.485
0.482
0.4825
0.48
0.4825
0.483
0.4835
0.4805
0.4815
0.481
0.4875
0.48
0.4835
0.4815
0.484
0.486
0.4845
0.482
0.482
0.48
0.47750000000000004
0.47800000000000004
0.47900000000000004
0.47850000000000004
0.4805
0.4815
0.487
0.4955
0.525
0.622
0.835
0.993
0.9965
0.909
0.81
0.7325
0.676
0.6345000000000001
0.6045
0.589
0.5865
0.5925
0.5995
0.597
0.584
0.5665
0.5475
0.5345
0.519
0.511
0.503
0.4965
0.491
0.4875
0.4845
0.4835
0.483
0.4815
0.4815
0.47950000000000004
0.47900000000000004
0.47900000000000004
0.47950000000000004
0.481
0.481
0.4825
0.4845
0.483
0.4845
0.4845
0.4835
0.483
0.4855
0.4845
0.4835
0.484
0.4845
0.4835
0.4845
0.4855
0.4825
0.4825
0.4815
0.481
0.482
0.47850000000000004
0.47900000000000004
0.48
0.4805
0.481
0.48
0.47950000000000004
0.47950000000000004
0.47800000000000004
0.47900000000000004
0.48
0.4805
0.481
0.4835
0.4825
0.4825
0.4835
0.4835
0.4845
0.484
0.4845
0.4855
0.4855
0.485
0.4845
0.483
0.4835
0.485
0.485
0.4855
0.486
0.4855
0.4855
0.4865
0.4835
0.485
0.4825
0.4815
0.4805
0.4815
0.4815
0.481
0.4815
0.4805
0.4805
0.4815
0.4815
0.4815
0.4815
0.4815
0.481
0.482
0.4815
0.4815
0.483
0.481
0.4805
0.4805
0.4815
0.47900000000000004
0.481
0.48
0.47950000000000004
0.47950000000000004
0.47950000000000004
0.4805
0.4805
0.481
0.481
0.4815
0.4805
0.4805
0.47950000000000004
0.47950000000000004
0.48
0.482
0.4835
0.47950000000000004
0.481
0.481
0.4815
0.4815
0.4815
0.481
0.4805
0.4805
0.4835
0.4825
0.4835
0.483
0.485
0.4825
0.4825
0.4815
0.4815
0.482
0.4815
0.4815
0.4815
0.47950000000000004
0.47950000000000004
0.47850000000000004
0.47750000000000004
0.47800000000000004
0.47650000000000003
0.47550000000000003
0.47550000000000003
0.47750000000000004
0.47550000000000003
0.47700000000000004
0.4815
0.489
0.5055000000000001
0.627
0.867
1.0415
1.082
1.025
0.93
0.8345
0.7555000000000001
0.6915
0.6455
0.61
0.5835
0.5675
0.5535
0.5585
0.5635
0.5615
0.549
0.537
0.5215
0.5125
0.5045000000000001
0.4995
0.4945
0.491
0.487
0.4845
0.4835
0.482
0.4815
0.48
0.47900000000000004
0.4815
0.4815
0.4805
0.47750000000000004
0.47900000000000004
0.47700000000000004
0.47600000000000003
0.47950000000000004
0.47800000000000004
0.47750000000000004
0.47750000000000004
0.47950000000000004
0.47900000000000004
0.47900000000000004
0.4805
0.48
0.47850000000000004
0.4815
0.4815
0.47900000000000004
0.47850000000000004
0.47850000000000004
0.47700000000000004
0.4815
0.47800000000000004
0.4815
0.47800000000000004
0.4815
0.47950000000000004
0.47900000000000004
0.47900000000000004
0.47950000000000004
0.4805
0.4825
0.4815
0.47750000000000004
0.47650000000000003
0.47950000000000004
0.4825
0.47850000000000004
0.482
0.47950000000000004
0.47800000000000004
0.483
0.483
0.4845
0.485
0.4835
0.486
0.4845
0.484
0.484
0.481
0.4815
0.48
0.47950000000000004
0.47900000000000004
0.4825
0.4825
0.4845
0.484
0.483
0.4845
0.487
0.4835
0.485
0.4835
0.4855
0.485
0.483
0.4815
0.48
0.4805
0.47950000000000004
0.481
0.4815
0.482
0.4815
0.4815
0.4835
0.4835
0.4825
0.482
0.482
0.483
0.482
0.4855
0.485
0.483
0.4825
0.483
0.482
0.4815
0.4815
0.4825
0.483
0.4835
0.485
0.481
0.4825
0.4825
0.4835
0.4815
0.4805
0.4805
0.47950000000000004
0.47750000000000004
0.47750000000000004
0.47700000000000004
0.47850000000000004
0.47950000000000004
0.4805
0.481
0.482
0.483
0.486
0.499
0.53
0.5750000000000001
0.7155
0.9465
1.1235
1.1655
1.1025
0.9955
0.8895000000000001
0.7985
0.7305
0.6795
0.6405
0.61
0.5885
0.5685
0.5525
0.539
0.527
0.5155
0.5065000000000001
0.4965
0.491
0.4865
0.4835
0.484
0.482
0.481
0.47700000000000004
0.48
0.481
0.4805
0.4815
0.47950000000000004
0.48
0.4815
0.483
0.482
0.482
0.4825
0.4835
0.4825
0.4835
0.4835
0.485
0.4835
0.484
0.4835
0.485
0.483
0.483
0.4845
0.484
0.4865
0.47950000000000004
0.4815
0.483
0.47950000000000004
0.482
0.4835
0.4825
0.483
0.484
0.4835
0.4835
0.483
0.4835
0.482
0.482
0.4815
0.482
0.4845
0.4835
0.481
0.481
0.4815
0.4805
0.481
0.47950000000000004
0.47900000000000004
0.47850000000000004
0.47900000000000004
0.47900000000000004
0.47950000000000004
0.47950000000000004
0.48
0.47950000000000004
0.47900000000000004
0.47900000000000004
0.47950000000000004
0.47950000000000004
0.47850000000000004
0.47800000000000004
0.47850000000000004
0.47850000000000004
0.47850000000000004
0.47850000000000004
0.47800000000000004
0.47800000000000004
0.47750000000000004
0.47800000000000004
0.47900000000000004
0.4805
0.4835
0.481
0.483
0.4835
0.4845
0.4845
0.4845
0.4845
0.4855
0.4865
0.487
0.4865
0.486
0.4875
0.485
0.484
0.4835
0.4815
0.481
0.48
0.4805
0.4805
0.47950000000000004
0.48
0.4805
0.4815
0.481
0.483
0.47950000000000004
0.47750000000000004
0.47900000000000004
0.47900000000000004
0.4825
0.47850000000000004
0.4815
0.481
0.4805
0.4805
0.4825
0.482
0.4845
0.4815
0.4805
0.47950000000000004
0.481
0.47950000000000004
0.47900000000000004
0.4805
0.481
0.4815
0.4805
0.482
0.4805
0.47850000000000004
0.47850000000000004
0.47950000000000004
0.47650000000000003
0.47900000000000004
0.47750000000000004
0.47450000000000003
0.47600000000000003
0.47750000000000004
0.47650000000000003
0.4835
0.4905
0.512
0.655
0.8335
0.9215
0.915
0.853
0.775
0.7115
0.659
0.6165
0.59
0.5700000000000001
0.5535
0.5455
0.536
0.532
0.524
0.515
0.5055000000000001
0.498
0.4905
0.49
0.487
0.4865
0.4835
0.486
0.482
0.47950000000000004
0.4805
0.481
0.48
0.481
0.4835
0.4805
0.47650000000000003
0.4805
0.4805
0.4825
0.47800000000000004
0.4805
0.4825
0.4815
0.4825
0.4815
0.47950000000000004
0.4825
0.4815
0.47900000000000004
0.482
0.4825
0.483
0.483
0.484
0.4835
0.4845
0.4825
0.484
0.4815
0.483
0.483
0.487
0.4835
0.485
0.486
0.485
0.485
0.485
0.4845
0.4845
0.484
0.4835
0.4845
0.4845
0.485
0.485
0.486
0.486
0.4865
0.4865
0.483
0.4845
0.485
0.4855
0.485
0.4845
0.4855
0.485
0.4855
0.4865
0.4865
0.4865
0.4865
0.485
0.4835
0.4815
0.482
0.4815
0.4815
0.4825
0.483
0.483
0.482
0.4825
0.4845
0.4825
0.4835
0.482
0.4815
0.481
0.4815
0.4825
0.482
0.482
0.482
0.483
0.484
0.4865
0.485
0.4865
0.4875
0.4875
0.4875
0.4875
0.4875
0.4875
0.488
0.4895
0.4885
0.4885
0.491
0.489
0.4855
0.485
0.4835
0.4845
0.4845
0.485
0.4825
0.482
0.4825
0.482
0.482
0.4805
0.4815
0.4815
0.4805
0.4805
0.48
0.481
0.483
0.486
0.4945
0.5045000000000001
0.526
0.6105
0.7215
0.7795
0.7775
0.7405
0.6885
0.644
0.6085
0.5795
0.556
0.54
0.529
0.5205
0.5145
0.5115000000000001
0.5055000000000001
0.5
0.494
0.4915
0.4885
0.4845
0.4825
0.481
0.481
0.482
0.47950000000000004
0.48
0.4805
0.4805
0.48
0.4815
0.4815
0.4825
0.47900000000000004
0.4815
0.481
0.4815
0.482
0.4825
0.4815
0.482
0.4825
0.483
0.481
0.4815
0.4815
0.4815
0.48
0.4815
0.4825
0.4835
0.483
0.483
0.482
0.4815
0.481
0.482
0.483
0.4835
0.4845
0.487
0.487
0.487
0.488
0.4875
0.4885
0.4885
0.4925
0.4915
0.4895
0.489
0.4875
0.487
0.4875
0.4885
0.4855
0.4845
0.4835
0.482
0.4835
0.4835
0.483
0.4825
0.482
0.4825
0.482
0.4835
0.485
0.4835
0.4855
0.4845
0.489
0.4865
0.487
0.4865
0.4835
0.4825
0.4835
0.4835
0.4835
0.484
0.4845
0.4845
0.4865
0.4855
0.4855
0.4855
0.485
0.484
0.4835
0.4845
0.4855
0.485
0.4865
0.487
0.4835
0.4825
0.4865
0.4865
0.4875
0.4875
0.485
0.489
0.4885
0.4875
0.4885
0.4875
0.4895
0.487
0.4875
0.4875
0.4895
0.4915
0.4915
0.4905
0.489
0.4885
0.487
0.4835
0.4875
0.4885
0.49
0.486
0.4885
0.4895
0.4875
0.4905
0.4895
0.486
0.486
0.4855
0.483
0.4815
0.4815
0.4805
0.4835
0.484
0.4825
0.4845
0.554
0.881
0.746
0.669
0.619
0.595
0.58
0.5715
0.58
0.5815
0.5645
0.5505
0.534
0.518
0.5095000000000001
0.5015000000000001
0.4945
0.4885
0.488
0.4855
0.4855
0.4855
0.485
0.4825
0.4835
0.4835
0.483
0.482
0.4825
0.4825
0.4825
0.482
0.483
0.4825
0.4835
0.4835
0.4825
0.4815
0.482
0.4835
0.484
0.485
0.4855
0.487
0.488
0.4885
0.4885
0.4875
0.4885
0.4885
0.4875
0.4875
0.4885
0.4865
0.486
0.4865
0.4875
0.4885
0.4885
0.4885
0.4905
0.4895
0.4895
0.4905
0.4895
0.489
0.4885
0.488
0.4895
0.4865
0.484
0.4855
0.4845
0.4865
0.484
0.486
0.487
0.487
0.4875
0.489
0.4885
0.4895
0.488
0.4875
0.4885
0.487
0.4875
0.488
0.4885
0.4895
0.489
0.489
0.4895
0.4905
0.491
0.4895
0.49
0.4915
0.4865
0.4875
0.4865
0.4855
0.4855
0.4855
0.4855
0.4855
0.4865
0.486
0.487
0.489
0.4885
0.4885
0.4885
0.489
0.4895
0.4895
0.489
0.4895
0.4905
0.491
0.4905
0.4895
0.4905
0.4895
0.489
0.4875
0.4875
0.486
0.485
0.485
0.4855
0.4855
0.487
0.4845
0.4845
0.4855
0.4845
0.4855
0.4855
0.484
0.4845
0.4835
0.4835
0.4845
0.4845
0.4835
0.4835
0.4845
0.485
0.4835
0.486
0.482
0.4815
0.4815
0.4805
0.48
0.47900000000000004
0.47900000000000004
0.47950000000000004
0.47900000000000004
0.48
0.482
0.4855
0.4915
0.5075000000000001
0.6195
0.786
0.885
0.893
0.843
0.775
0.7135
0.663
0.6225
0.5925
0.5695
0.5515
0.5395
0.535
0.54
0.542
0.5375
0.5295
0.517
0.508
0.5005000000000001
0.4955
0.492
0.4895
0.4865
0.4855
0.4855
0.4825
0.4825
0.485
0.4825
0.483
0.486
0.4835
0.4825
0.4845
0.4835
0.4835
0.4835
0.484
0.4835
0.484
0.486
0.483
0.4835
0.483
0.483
0.4855
0.4825
0.486
0.4835
0.485
0.485
0.4855
0.4835
0.484
0.485
0.4845
0.482
0.4845
0.4855
0.487
0.485
0.485
0.482
0.483
0.4815
0.481
0.48
0.4865
0.485
0.486
0.4895
0.487
0.486
0.4855
0.488
0.4865
0.491
0.4885
0.4895
0.4855
0.4865
0.483
0.4875
0.4875
0.4885
0.486
0.486
0.487
0.4855
0.4835
0.483
0.4845
0.4855
0.486
0.487
0.4875
0.486
0.4835
0.484
0.483
0.488
0.4895
0.4855
0.4885
0.4875
0.4845
0.4885
0.485
0.491
0.4895
0.4895
0.4895
0.4915
0.4905
0.4885
0.489
0.4915
0.49
0.491
0.4895
0.4875
0.4875
0.4875
0.487
0.487
0.487
0.487
0.4875
0.4875
0.4875
0.489
0.4855
0.486
0.485
0.4845
0.4825
0.484
0.4835
0.483
0.4825
0.483
0.482
0.483
0.484
0.482
0.4815
0.482
0.4845
0.4945
0.5075000000000001
0.5475
0.677
0.8225
0.8905000000000001
0.8795000000000001
0.8205
0.7545000000000001
0.6935
0.6495
0.616
0.588
0.5685
0.555
0.5495
0.5485
0.5445
0.5375
0.5265
0.517
0.5085000000000001
0.5
0.494
0.4895
0.4875
0.485
0.4845
0.483
0.4825
0.4825
0.4825
0.4825
0.482
0.4825
0.4835
0.4855
0.487
0.4875
0.486
0.4865
0.4885
0.489
0.49
0.4875
0.4895
0.485
0.488
0.4875
0.4875
0.4875
0.489
0.49
0.4895
0.49
0.489
0.49
0.4895
0.49
0.4895
0.489
0.4875
0.4865
0.4865
0.486
0.486
0.4855
0.485
0.4845
0.4835
0.485
0.4845
0.485
0.484
0.485
0.4855
0.484
0.486
0.4845
0.4845
0.485
0.4845
0.4855
0.4855
0.488
0.4855
0.4835
0.4845
0.485
0.4855
0.486
0.485
0.483
0.484
0.4855
0.4865
0.4865
0.4885
0.4855
0.4845
0.4855
0.4865
0.4845
0.4865
0.4855
0.486
0.486
0.486
0.4845
0.4855
0.485
0.4845
0.4845
0.4855
0.486
0.4885
0.489
0.4895
0.4905
0.4905
0.4915
0.4915
0.492
0.4915
0.492
0.492
0.4925
0.4915
0.4925
0.4945
0.493
0.4915
0.4925
0.492
0.4905
0.491
0.4905
0.4915
0.492
0.493
0.4905
0.4905
0.49
0.489
0.489
0.4885
0.4895
0.4885
0.4875
0.4865
0.4875
0.4865
0.487
0.4865
0.4865
0.485
0.489
0.487
0.486
0.485
0.482
0.482
0.4815
0.48
0.4815
0.482
0.48
0.481
0.481
0.4815
0.4875
0.4965
0.5225
0.6535
0.8415
0.9485
0.9490000000000001
0.882
0.7995
0.729
0.6735
0.63
0.5995
0.5745
0.561
0.5565
0.553
0.5495
0.542
0.5305
0.52
0.5095000000000001
0.4995
0.4975
0.493
0.4905
0.4885
0.4855
0.4865
0.4875
0.482
0.4835
0.4875
0.483
0.4815
0.486
0.4875
0.4845
0.4875
0.4835
0.486
0.488
0.485
0.486
0.4855
0.484
0.485
0.4815
0.4855
0.4885
0.486
0.4875
0.486
0.4855
0.4845
0.4895
0.487
0.4885
0.4885
0.4895
0.489
0.49
0.4895
0.488
0.487
0.4855
0.485
0.487
0.484
0.4865
0.4865
0.488
0.4875
0.49
0.49
0.4895
0.4885
0.489
0.489
0.4885
0.488
0.4885
0.487
0.4865
0.486
0.485
0.485
0.4855
0.486
0.4845
0.485
0.4855
0.486
0.4855
0.487
0.4865
0.4855
0.485
0.4855
0.486
0.4875
0.4855
0.487
0.486
0.486
0.486
0.487
0.4865
0.486
0.4855
0.485
0.4855
0.4845
0.4845
0.487
0.4865
0.4865
0.4865
0.4865
0.487
0.488
0.4875
0.4875
0.488
0.487
0.486
0.485
0.4855
0.487
0.4875
0.4865
0.4855
0.4865
0.488
0.4855
0.486
0.4865
0.487
0.4865
0.487
0.4865
0.487
0.486
0.4845
0.485
0.4845
0.4835
0.4825
0.4835
0.4835
0.4835
0.484
0.4845
0.487
0.4955
0.5105000000000001
0.5405
0.642
0.769
0.8355
0.8285
0.7805
0.723
0.671
0.6305000000000001
0.597
0.5720000000000001
0.5535
0.541
0.5325
0.5275
0.5245
0.5215
0.5175
0.5125
0.504
0.5015000000000001
0.4975
0.4945
0.493
0.491
0.4905
0.4895
0.489
0.489
0.4895
0.491
0.491
0.4915
0.492
0.4915
0.4925
0.4915
0.4915
0.4925
0.492
0.495
0.4935
0.4935
0.493
0.4915
0.4935
0.4915
0.4925
0.492
0.4925
0.4925
0.492
0.493
0.4935
0.4935
0.493
0.492
0.4915
0.4915
0.4935
0.4925
0.4875
0.4885
0.488
0.4875
0.487
0.486
0.4865
0.487
0.487
0.4875
0.4875
0.489
0.4855
0.486
0.4855
0.4865
0.4855
0.485
0.4855
0.485
0.4855
0.4845
0.485
0.4865
0.487
0.4855
0.4865
0.4855
0.4865
0.4865
0.486
0.487
0.4855
0.4865
0.486
0.4865
0.4865
0.486
0.4855
0.487
0.4865
0.488
0.4875
0.4855
0.4865
0.4875
0.487
0.487
0.4885
0.485
0.486
0.4855
0.4865
0.4875
0.4885
0.4865
0.4905
0.489
0.4875
0.4895
0.489
0.49
0.4885
0.4895
0.4875
0.486
0.486
0.487
0.487
0.486
0.4865
0.4875
0.488
0.4865
0.492
0.492
0.489
0.4945
0.4905
0.4895
0.489
0.489
0.487
0.489
0.489
0.4875
0.4925
0.4895
0.4905
0.4885
0.491
0.486
0.489
0.4875
0.4855
0.4895
0.4875
0.486
0.4825
0.4865
0.485
0.485
0.484
0.491
0.504
0.5845
0.7615000000000001
0.9375
0.9405
0.8575
0.7765
0.6985
0.6515
0.5865
0.5525
0.523
0.509
0.504
0.4995
0.492
0.491
0.4895
0.4875
0.4895
0.489
0.4875
0.489
0.4895
0.4865
0.488
0.489
0.4865
0.4885
0.4895
0.489
0.489
0.4905
0.49
0.4895
0.4905
0.4905
0.4915
0.493
0.49
0.49
0.4915
0.4905
0.4905
0.49
0.49
0.4905
0.4905
0.4905
0.491
0.491
0.4915
0.493
0.4925
0.488
0.4905
0.486
0.4875
0.487
0.4885
0.4885
0.488
0.4885
0.4875
0.4875
0.4865
0.4865
0.4855
0.486
0.4855
0.4845
0.4845
0.4845
0.485
0.485
0.488
0.4875
0.4865
0.4855
0.485
0.4855
0.486
0.4875
0.4855
0.486
0.4855
0.4865
0.4855
0.4855
0.4855
0.4865
0.486
0.4865
0.4865
0.488
0.488
0.486
0.4845
0.486
0.4875
0.4885
0.488
0.49
0.4905
0.4915
0.4915
0.4925
0.493
0.4925
0.493
0.493
0.493
0.494
0.493
0.495
0.4925
0.493
0.4935
0.493
0.4935
0.4925
0.493
0.4925
0.493
0.494
0.4935
0.4925
0.4925
0.492
0.4905
0.489
0.489
0.487
0.488
0.489
0.488
0.4885
0.4875
0.4875
0.4885
0.4875
0.487
0.4855
0.4855
0.4865
0.486
0.485
0.484
0.4845
0.483
0.482
0.481
0.481
0.482
0.4805
0.47950000000000004
0.481
0.4825
0.4885
0.51
0.598
0.759
0.872
0.8915000000000001
0.8425
0.7745
0.7115
0.661
0.621
0.5905
0.5670000000000001
0.551
0.544
0.5425
0.539
0.535
0.53
0.523
0.5145
0.5075000000000001
0.5015000000000001
0.497
0.4945
0.4935
0.4935
0.4925
0.4915
0.491
0.4915
0.49
0.489
0.49
0.4885
0.4885
0.487
0.4855
0.4855
0.4845
0.485
0.4845
0.487
0.4845
0.486
0.4875
0.4875
0.4875
0.487
0.488
0.4885
0.4865
0.4865
0.487
0.4865
0.4855
0.4855
0.4865
0.4865
0.4855
0.4855
0.4855
0.486
0.4855
0.487
0.4865
0.4875
0.4835
0.485
0.4855
0.4845
0.4845
0.485
0.4835
0.484
0.485
0.485
0.4855
0.486
0.487
0.4875
0.4895
0.4865
0.486
0.4865
0.4855
0.4865
0.4865
0.4855
0.4855
0.4855
0.4855
0.487
0.4855
0.4855
0.486
0.4865
0.4875
0.4845
0.4855
0.4845
0.487
0.4875
0.4855
0.4855
0.4855
0.4865
0.489
0.4875
0.488
0.488
0.4875
0.4915
0.488
0.4895
0.4875
0.49
0.4875
0.4875
0.4875
0.4885
0.4875
0.494
0.4905
0.487
0.4875
0.4875
0.488
0.4875
0.487
0.49
0.489
0.4875
0.489
0.4885
0.4885
0.491
0.4875
0.49
0.4895
0.4915
0.491
0.4905
0.4905
0.493
0.491
0.4915
0.4895
0.491
0.488
0.487
0.4885
0.4905
0.4895
0.491
0.4875
0.485
0.4865
0.484
0.485
0.4895
0.4855
0.4875
0.487
0.4915
0.4985
0.513
0.558
0.7175
0.9195
1.0265
1.012
0.9135
0.78
0.681
0.6365000000000001
0.5995
0.5835
0.551
0.504
0.4985
0.4855
0.482
0.484
0.486
0.487
0.484
0.4875
0.486
0.488
0.488
0.4895
0.49
0.488
0.4865
0.4885
0.487
0.4895
0.489
0.4875
0.4875
0.4895
0.489
0.489
0.489
0.4905
0.49
0.4895
0.4895
0.4895
0.4915
0.492
0.4925
0.4895
0.4895
0.4845
0.486
0.4845
0.4835
0.485
0.4845
0.4845
0.4855
0.4875
0.4845
0.487
0.489
0.49
0.4895
0.4915
0.491
0.491
0.4915
0.4925
0.4915
0.4915
0.4915
0.4905
0.491
0.491
0.4915
0.492
0.4915
0.492
0.492
0.492
0.493
0.4945
0.493
0.491
0.4915
0.49
0.4895
0.489
0.488
0.4875
0.4875
0.4875
0.487
0.487
0.4865
0.4865
0.486
0.4865
0.487
0.4855
0.4855
0.4865
0.488
0.4885
0.4885
0.4865
0.4865
0.4855
0.4865
0.485
0.4875
0.487
0.4885
0.487
0.4885
0.488
0.4865
0.4865
0.4845
0.4865
0.4875
0.488
0.4875
0.4875
0.4895
0.491
0.4895
0.4885
0.4895
0.4895
0.4885
0.4885
0.4885
0.488
0.488
0.4865
0.4865
0.4875
0.4865
0.4865
0.4865
0.486
0.486
0.486
0.486
0.4855
0.485
0.4835
0.4835
0.48
0.481
0.48
0.4805
0.4805
0.4805
0.4825
0.4845
0.4875
0.497
0.5705
0.683
0.7435
0.7435
0.7095
0.6635
0.6235
0.593
0.5695
0.55
0.5355
0.5275
0.525
0.5255
0.5265
0.5255
0.5215
0.5145
0.5075000000000001
0.5015000000000001
0.4975
0.4935
0.4915
0.49
0.4885
0.4865
0.486
0.485
0.485
0.4845
0.485
0.4875
0.4865
0.4845
0.4845
0.485
0.4855
0.486
0.4865
0.4865
0.4875
0.488
0.488
0.4875
0.4875
0.487
0.486
0.485
0.4855
0.485
0.486
0.4875
0.488
0.4885
0.487
0.4855
0.487
0.4875
0.489
0.487
0.488
0.489
0.4885
0.49
0.488
0.4895
0.4905
0.4875
0.488
0.4875
0.4875
0.4905
0.489
0.4875
0.4885
0.49
0.488
0.4875
0.487
0.4875
0.487
0.4885
0.49
0.4885
0.4885
0.4885
0.488
0.4885
0.487
0.4875
0.4875
0.487
0.4875
0.4875
0.4905
0.4855
0.4885
0.4905
0.489
0.4845
0.489
0.4905
0.4885
0.4915
0.4935
0.493
0.4915
0.4885
0.4915
0.492
0.4915
0.491
0.4915
0.492
0.49
0.489
0.4885
0.4895
0.493
0.49
0.492
0.4885
0.4905
0.4895
0.4885
0.489
0.4915
0.4885
0.486
0.4915
0.4875
0.4925
0.4925
0.492
0.4925
0.49
0.4895
0.4925
0.491
0.491
0.4895
0.4905
0.489
0.4885
0.49
0.4925
0.4905
0.4935
0.4935
0.4995
0.509
0.534
0.6085
0.738
0.8235
0.8395
0.8015
0.745
0.6905
0.645
0.608
0.5815
0.56
0.545
0.5335
0.5285
0.5225
0.5205
0.5155
0.5075000000000001
0.5005000000000001
0.4955
0.4915
0.4895
0.487
0.486
0.485
0.4845
0.4865
0.485
0.4855
0.4875
0.4845
0.4875
0.489
0.4895
0.4895
0.491
0.4915
0.493
0.4925
0.4935
0.4925
0.4935
0.4945
0.491
0.4935
0.4945
0.4945
0.494
0.495
0.494
0.4945
0.4945
0.4935
0.494
0.4935
0.4935
0.4915
0.491
0.491
0.4915
0.4895
0.4885
0.4885
0.489
0.489
0.4885
0.4885
0.4885
0.4885
0.488
0.4885
0.4875
0.4875
0.4885
0.4875
0.4905
0.489
0.487
0.4875
0.4885
0.489
0.4885
0.49
0.489
0.489
0.489
0.4895
0.4885
0.489
0.49
0.49
0.49
0.4905
0.4905
0.489
0.488
0.4875
0.4875
0.489
0.49
0.4915
0.492
0.4925
0.4925
0.4935
0.4935
0.4945
0.494
0.496
0.4965
0.497
0.4955
0.4955
0.4955
0.4955
0.4955
0.4965
0.4935
0.496
0.4965
0.4955
0.4945
0.494
0.494
0.4935
0.4925
0.4915
0.491
0.4895
0.491
0.4885
0.4895
0.4895
0.49
0.4905
0.4905
0.491
0.4905
0.4905
0.4905
0.493
0.493
0.4915
0.493
0.4905
0.492
0.494
0.4935
0.4955
0.4955
0.493
0.4925
0.492
0.4975
0.4935
0.4935
0.492
0.491
0.49
0.489
0.488
0.4875
0.4865
0.4865
0.4865
0.487
0.4875
0.491
0.4985
0.5185
0.6195
0.7805
0.879
0.8865000000000001
0.8290000000000001
0.7585000000000001
0.6990000000000001
0.6515
0.6155
0.5885
0.5705
0.5565
0.5515
0.5545
0.5565
0.5555
0.547
0.5345
0.5215
0.5115000000000001
0.506
0.501
0.4975
0.494
0.493
0.4925
0.4925
0.491
0.4905
0.4915
0.4895
0.4895
0.4905
0.4875
0.487
0.488
0.4875
0.4885
0.4875
0.4905
0.4885
0.4875
0.4885
0.4895
0.489
0.487
0.486
0.4905
0.489
0.4895
0.488
0.486
0.4865
0.4885
0.487
0.4875
0.4895
0.4865
0.488
0.486
0.4895
0.4885
0.494
0.4925
0.493
0.4955
0.491
0.4905
0.4925
0.491
0.4935
0.4915
0.4875
0.4905
0.489
0.4885
0.492
0.49
0.4915
0.4915
0.492
0.491
0.492
0.4945
0.4925
0.4915
0.495
0.494
0.493
0.4925
0.4955
0.493
0.4945
0.4955
0.4945
0.4945
0.4935
0.4925
0.4925
0.4925
0.4925
0.4905
0.4895
0.49
0.4915
0.4895
0.49
0.49
0.489
0.4895
0.4895
0.4895
0.489
0.4885
0.4885
0.4905
0.491
0.4915
0.4935
0.491
0.491
0.4885
0.4905
0.4905
0.4905
0.491
0.491
0.4895
0.4915
0.4905
0.4905
0.4915
0.4905
0.4905
0.491
0.492
0.4915
0.4915
0.4925
0.492
0.493
0.492
0.4905
0.491
0.4905
0.4915
0.4905
0.49
0.4895
0.489
0.4885
0.4875
0.4885
0.4935
0.5475
0.6795
0.7815
0.8095
0.7815
0.7305
0.6785
0.636
0.6025
0.5785
0.559
0.5475
0.5355
0.53
0.5285
0.5255
0.5225
0.518
0.5125
0.5065000000000001
0.501
0.497
0.4955
0.495
0.494
0.4925
0.492
0.488
0.4895
0.4895
0.489
0.4885
0.4875
0.4875
0.4875
0.4875
0.4885
0.488
0.4875
0.4885
0.4875
0.4875
0.4875
0.4875
0.488
0.489
0.4895
0.4885
0.489
0.4885
0.4885
0.4885
0.488
0.491
0.4875
0.488
0.4885
0.488
0.488
0.4875
0.4875
0.4875
0.489
0.489
0.4895
0.4895
0.4915
0.491
0.4915
0.491
0.4905
0.4895
0.4905
0.4895
0.491
0.4895
0.49
0.489
0.4895
0.4895
0.4905
0.4895
0.4895
0.4895
0.4905
0.4905
0.4895
0.4885
0.489
0.491
0.4885
0.49
0.4905
0.4915
0.489
0.4895
0.489
0.4895
0.4905
0.4905
0.4895
0.4895
0.4895
0.4885
0.488
0.489
0.4895
0.491
0.488
0.4895
0.489
0.4895
0.488
0.4885
0.4895
0.4905
0.4905
0.4905
0.491
0.49
0.4905
0.4905
0.491
0.4915
0.4925
0.4915
0.4925
0.4935
0.493
0.492
0.4915
0.4925
0.4925
0.492
0.494
0.4945
0.493
0.4895
0.489
0.491
0.4915
0.4915
0.491
0.4905
0.4925
0.4925
0.494
0.493
0.491
0.4935
0.489
0.4915
0.4915
0.4915
0.4885
0.491
0.4895
0.4895
0.4875
0.486
0.4865
0.488
0.4885
0.4855
0.4885
0.485
0.4895
0.4935
0.502
0.5545
0.754
0.9375
0.9490000000000001
0.8555
0.766
0.6890000000000001
0.6345000000000001
0.595
0.5740000000000001
0.5625
0.553
0.549
0.543
0.5285
0.519
0.506
0.4995
0.497
0.4935
0.4885
0.4885
0.4875
0.489
0.4885
0.4885
0.488
0.4875
0.4895
0.4875
0.4885
0.489
0.4875
0.489
0.49
0.491
0.491
0.4915
0.492
0.4915
0.4915
0.4935
0.4935
0.4935
0.493
0.4925
0.494
0.4915
0.4915
0.491
0.4895
0.4895
0.4875
0.4885
0.49
0.492
0.4905
0.493
0.4915
0.4935
0.4935
0.4935
0.4935
0.4925
0.4935
0.4945
0.4945
0.494
0.4945
0.4945
0.495
0.495
0.4945
0.495
0.4945
0.4935
0.4935
0.4925
0.4915
0.491
0.4905
0.4895
0.4895
0.4895
0.489
0.4895
0.4905
0.4915
0.493
0.493
0.4935
0.4955
0.4955
0.4945
0.4945
0.4935
0.494
0.4945
0.4945
0.495
0.4955
0.4955
0.496
0.4955
0.4945
0.4955
0.494
0.4945
0.4935
0.4945
0.4925
0.4935
0.4945
0.494
0.4935
0.495
0.495
0.4945
0.4955
0.4955
0.497
0.495
0.496
0.4955
0.496
0.4955
0.4965
0.496
0.4965
0.4955
0.4955
0.4965
0.497
0.495
0.4945
0.494
0.4945
0.494
0.4935
0.4935
0.493
0.4915
0.491
0.487
0.485
0.481
0.4855
0.4855
0.4865
0.4865
0.4855
0.4875
0.491
0.494
0.51
0.5945
0.765
0.882
0.9055
0.8645
0.7985
0.7335
0.6805
0.639
0.608
0.5835
0.5705
0.559
0.555
0.5515
0.5445
0.5365
0.527
0.518
0.5095000000000001
0.503
0.499
0.4945
0.493
0.4915
0.49
0.489
0.487
0.487
0.4875
0.4875
0.486
0.486
0.486
0.4855
0.4855
0.485
0.486
0.487
0.487
0.4875
0.49
0.4915
0.4915
0.492
0.4915
0.4915
0.492
0.4935
0.4915
0.4915
0.4915
0.4895
0.4905
0.49
0.489
0.49
0.491
0.491
0.491
0.4885
0.4875
0.4875
0.4875
0.4875
0.4885
0.4895
0.4885
0.4875
0.4855
0.4875
0.49
0.4895
0.4875
0.4885
0.487
0.4865
0.487
0.4875
0.4885
0.49
0.489
0.4925
0.4875
0.489
0.488
0.4885
0.4895
0.4875
0.4895
0.489
0.492
0.4945
0.4895
0.4905
0.4925
0.4905
0.4885
0.4915
0.4905
0.4915
0.4895
0.4875
0.4905
0.4885
0.4895
0.4875
0.4895
0.488
0.4895
0.486
0.4885
0.4905
0.4905
0.493
0.4925
0.4935
0.4955
0.4915
0.4945
0.4885
0.4935
0.4895
0.494
0.4895
0.4895
0.49
0.496
0.496
0.4925
0.4935
0.4955
0.4915
0.4935
0.4935
0.494
0.4915
0.4935
0.4945
0.4915
0.4905
0.493
0.4905
0.4935
0.489
0.4895
0.49
0.4885
0.487
0.49
0.489
0.4915
0.5015000000000001
0.543
0.6955
0.9095
1.0035
0.9855
0.9135
0.8300000000000001
0.749
0.6895
0.6455
0.612
0.5875
0.5680000000000001
0.557
0.5475
0.54
0.5295
0.5205
0.513
0.5065000000000001
0.5015000000000001
0.4975
0.495
0.495
0.4895
0.4905
0.4895
0.4905
0.49
0.491
0.492
0.4925
0.4925
0.4925
0.4935
0.4935
0.4945
0.4935
0.494
0.493
0.4925
0.492
0.4915
0.492
0.491
0.4915
0.491
0.4915
0.492
0.492
0.493
0.492
0.4945
0.494
0.493
0.4925
0.4925
0.4925
0.4915
0.491
0.491
0.4915
0.4925
0.494
0.493
0.4925
0.4935
0.4935
0.494
0.4945
0.494
0.4935
0.4945
0.495
0.494
0.4945
0.495
0.4945
0.494
0.4945
0.4925
0.4915
0.491
0.4905
0.4905
0.4905
0.49
0.4915
0.4885
0.4895
0.49
0.4915
0.4925
0.4925
0.4945
0.492
0.4935
0.494
0.494
0.494
0.4935
0.494
0.494
0.495
0.494
0.4945
0.4945
0.495
0.4945
0.4945
0.4955
0.4955
0.495
0.4945
0.494
0.4945
0.494
0.4945
0.495
0.4945
0.4955
0.4965
0.493
0.4955
0.4955
0.495
0.495
0.495
0.4955
0.4955
0.4955
0.4965
0.4955
0.4955
0.4955
0.497
0.4945
0.4955
0.495
0.4955
0.4945
0.495
0.4945
0.4945
0.495
0.495
0.4965
0.495
0.496
0.4955
0.493
0.494
0.4945
0.495
0.494
0.493
0.494
0.4935
0.493
0.4915
0.4915
0.4895
0.4875
0.486
0.485
0.482
0.4845
0.4825
0.486
0.494
0.501
0.5305
0.6615
0.807
0.865
0.8485
0.7965
0.734
0.68
0.638
0.604
0.5785
0.5595
0.551
0.5465
0.5455
0.543
0.5355
0.5245
0.514
0.508
0.502
0.4985
0.495
0.4945
0.4935
0.4885
0.4875
0.485
0.4855
0.487
0.486
0.4855
0.4855
0.4865
0.4895
0.4865
0.486
0.485
0.487
0.4855
0.4875
0.489
0.4865
0.4865
0.485
0.4855
0.488
0.483
0.4885
0.4865
0.4865
0.488
0.487
0.4885
0.4895
0.4885
0.487
0.49
0.4865
0.486
0.491
0.486
0.4895
0.4885
0.4875
0.4915
0.4905
0.489
0.4905
0.4855
0.4875
0.486
0.4875
0.489
0.489
0.4885
0.4915
0.4925
0.4875
0.4885
0.4895
0.487
0.4865
0.4875
0.489
0.4895
0.4875
0.487
0.49
0.4905
0.487
0.4905
0.4895
0.4885
0.489
0.4905
0.4895
0.488
0.4915
0.4945
0.493
0.4925
0.493
0.494
0.4935
0.4935
0.4935
0.493
0.494
0.4915
0.4915
0.491
0.4905
0.49
0.489
0.4885
0.4895
0.49
0.49
0.4915
0.4945
0.4925
0.4945
0.4945
0.4945
0.4935
0.493
0.4925
0.491
0.491
0.491
0.491
0.4915
0.492
0.4915
0.493
0.493
0.494
0.4945
0.494
0.4935
0.4925
0.4915
0.4905
0.4895
0.4895
0.4885
0.489
0.4895
0.4895
0.49
0.4925
0.4965
0.5145
0.6335000000000001
0.8555
0.9615
0.961
0.8995
0.8185
0.747
0.6895
0.6415
0.6085
0.581
0.5625
0.55
0.54
0.5355
0.529
0.527
0.523
0.5165
0.509
0.505
0.503
0.503
0.4985
0.4965
0.494
0.4935
0.492
0.491
0.4915
0.4915
0.4915
0.4925
0.492
0.492
0.4915
0.4925
0.492
0.4915
0.4925
0.492
0.4915
0.4925
0.493
0.4925
0.4925
0.493
0.4925
0.492
0.4935
0.492
0.493
0.4945
0.4925
0.493
0.4925
0.4925
0.4925
0.4925
0.4935
0.4935
0.4935
0.4925
0.4925
0.4915
0.4915
0.492
0.492
0.4915
0.4925
0.494
0.4935
0.493
0.493
0.4935
0.4935
0.4935
0.495
0.4935
0.4935
0.494
0.4935
0.4935
0.4935
0.493
0.494
0.4935
0.493
0.4935
0.493
0.493
0.493
0.4935
0.4935
0.4945
0.4945
0.4955
0.493
0.4935
0.4945
0.4945
0.4945
0.4935
0.4935
0.495
0.494
0.494
0.4935
0.494
0.494
0.494
0.494
0.495
0.4945
0.4945
0.494
0.4925
0.4925
0.494
0.4905
0.4905
0.4925
0.489
0.4885
0.485
0.4875
0.4865
0.488
0.4885
0.489
0.489
0.4875
0.4885
0.4875
0.4865
0.4895
0.487
0.4895
0.4845
0.4865
0.4895
0.487
0.486
0.4855
0.487
0.4885
0.4875
0.487
0.487
0.4885
0.4885
0.4885
0.4875
0.4895
0.487
0.487
0.486
0.4855
0.4845
0.4845
0.482
0.4825
0.4815
0.481
0.4815
0.4825
0.4845
0.485
0.486
0.492
0.5035000000000001
0.586
0.723
0.8210000000000001
0.8435
0.8085
0.751
0.6950000000000001
0.6465
0.615
0.5835
0.5630000000000001
0.5435
0.5335
0.5265
0.523
0.5205
0.5115000000000001
0.5055000000000001
0.499
0.495
0.4925
0.4895
0.4885
0.486
0.484
0.484
0.4855
0.4845
0.4875
0.4845
0.4855
0.4845
0.4865
0.485
0.4865
0.4875
0.4845
0.486
0.487
0.4895
0.489
0.489
0.4895
0.4895
0.488
0.4875
0.4855
0.4875
0.4885
0.4885
0.4895
0.4905
0.491
0.4885
0.4885
0.49
0.4875
0.491
0.488
0.4875
0.4895
0.491
0.4875
0.4885
0.4875
0.4865
0.4875
0.4895
0.4875
0.4885
0.4885
0.4895
0.489
0.488
0.489
0.489
0.49
0.4845
0.4915
0.4915
0.49
0.488
0.49
0.4935
0.4905
0.489
0.4905
0.492
0.4885
0.4875
0.486
0.4865
0.487
0.4875
0.49
0.487
0.4875
0.4865
0.4915
0.4905
0.491
0.4915
0.491
0.489
0.4885
0.492
0.4915
0.489
0.489
0.4865
0.489
0.489
0.491
0.492
0.494
0.492
0.493
0.4925
0.4915
0.4945
0.4945
0.4915
0.4925
0.492
0.491
0.4905
0.49
0.491
0.4915
0.4915
0.4915
0.4905
0.49
0.4895
0.4885
0.4895
0.488
0.488
0.487
0.486
0.4845
0.483
0.4835
0.4825
0.4825
0.4835
0.4815
0.483
0.4845
0.4895
0.5425
0.674
0.7695
0.7915
0.7625000000000001
0.7095
0.662
0.623
0.5935
0.5720000000000001
0.556
0.5455
0.5375
0.535
0.5325
0.531
0.525
0.5205
0.514
0.5075000000000001
0.5035000000000001
0.501
0.498
0.497
0.4955
0.4945
0.4925
0.4935
0.493
0.493
0.493
0.4925
0.4945
0.493
0.495
0.4945
0.4945
0.4935
0.493
0.4915
0.4915
0.491
0.491
0.492
0.492
0.4925
0.493
0.4925
0.493
0.4905
0.49
0.4895
0.491
0.4915
0.49
0.4885
0.489
0.488
0.4885
0.49
0.488
0.491
0.49
0.4905
0.49
0.49
0.4885
0.4875
0.4885
0.4885
0.488
0.489
0.4875
0.4875
0.488
0.4885
0.4885
0.4885
0.4905
0.4905
0.493
0.4925
0.495
0.4935
0.4945
0.494
0.4935
0.4945
0.4935
0.4925
0.4925
0.4925
0.4915
0.49
0.4895
0.488
0.489
0.489
0.4895
0.4895
0.491
0.4915
0.4915
0.491
0.491
0.4915
0.4905
0.4905
0.4905
0.4915
0.494
0.494
0.495
0.4955
0.4955
0.496
0.4965
0.4955
0.4965
0.4965
0.4965
0.4965
0.4965
0.4965
0.495
0.497
0.4965
0.498
0.4975
0.4975
0.497
0.4975
0.496
0.4965
0.497
0.4955
0.4945
0.4945
0.494
0.4955
0.4895
0.489
0.489
0.489
0.489
0.4895
0.489
0.4875
0.4875
0.4895
0.4905
0.4905
0.4885
0.4865
0.4875
0.488
0.4885
0.489
0.4875
0.4885
0.488
0.4875
0.4865
0.486
0.486
0.4855
0.49
0.4895
0.4875
0.4915
0.498
0.5095000000000001
0.5740000000000001
0.6855
0.75
0.7535000000000001
0.7185
0.6715
0.6285000000000001
0.5965
0.5705
0.551
0.5355
0.5265
0.52
0.5115000000000001
0.508
0.5045000000000001
0.5015000000000001
0.496
0.491
0.4895
0.486
0.487
0.484
0.486
0.4845
0.4875
0.4855
0.486
0.486
0.487
0.4885
0.49
0.4915
0.49
0.4905
0.491
0.486
0.491
0.4905
0.4895
0.4905
0.489
0.49
0.4885
0.4895
0.4895
0.4895
0.4935
0.49
0.491
0.4925
0.491
0.487
0.493
0.488
0.4905
0.49
0.4895
0.4895
0.4915
0.491
0.4905
0.4885
0.493
0.494
0.4935
0.4915
0.493
0.4925
0.4925
0.491
0.4925
0.4925
0.4895
0.4915
0.4915
0.491
0.4915
0.493
0.4945
0.494
0.4945
0.495
0.4935
0.4935
0.4935
0.493
0.4915
0.491
0.4915
0.4915
0.491
0.4895
0.4895
0.4895
0.489
0.4915
0.491
0.492
0.491
0.492
0.4915
0.4915
0.491
0.492
0.4925
0.4915
0.4915
0.492
0.493
0.4915
0.4915
0.491
0.4905
0.4895
0.49
0.4905
0.4895
0.49
0.4905
0.49
0.49
0.4915
0.493
0.4945
0.4945
0.496
0.4965
0.497
0.4935
0.496
0.497
0.4975
0.4975
0.4965
0.4955
0.4955
0.4955
0.495
0.495
0.4945
0.4935
0.493
0.4915
0.4925
0.492
0.493
0.4915
0.4915
0.4925
0.4955
0.5
0.515
0.5575
0.6035
0.6245
0.6195
0.6005
0.5815
0.5615
0.5465
0.535
0.5275
0.5245
0.522
0.521
0.5225
0.525
0.5245
0.5205
0.5155
0.5095000000000001
0.5025000000000001
0.4985
0.4915
0.4915
0.49
0.488
0.489
0.4875
0.4885
0.4895
0.489
0.4895
0.489
0.4865
0.4895
0.4905
0.4905
0.4915
0.4945
0.4935
0.4905
0.491
0.491
0.4905
0.4905
0.489
0.4915
0.493
0.4915
0.4915
0.4905
0.4915
0.492
0.493
0.4935
0.494
0.4945
0.495
0.4955
0.4955
0.497
0.4965
0.4955
0.4945
0.4935
0.4935
0.4915
0.4925
0.492
0.492
0.492
0.4915
0.491
0.491
0.4935
0.491
0.4915
0.4925
0.493
0.4935
0.4945
0.4955
0.4945
0.4955
0.4965
0.4965
0.4975
0.4965
0.496
0.4955
0.495
0.495
0.4955
0.494
0.4945
0.4915
0.492
0.4915
0.4915
0.4915
0.4935
0.494
0.494
0.493
0.492
0.4915
0.4925
0.4925
0.4955
0.4915
0.493
0.4915
0.492
0.4945
0.493
0.495
0.494
0.495
0.4955
0.4965
0.4965
0.497
0.4965
0.4975
0.4975
0.4955
0.4975
0.4975
0.4945
0.4955
0.4965
0.4935
0.493
0.493
0.493
0.494
0.493
0.4945
0.4945
0.4935
0.4935
0.4935
0.494
0.4945
0.494
0.4975
0.4935
0.4945
0.495
0.494
0.492
0.493
0.4905
0.493
0.4905
0.493
0.492
0.4945
0.4895
0.491
0.491
0.49
0.4915
0.495
0.497
0.5455
0.7030000000000001
0.7775
0.7635000000000001
0.7105
0.5555
0.5285
0.5265
0.5145
0.5085000000000001
0.5015000000000001
0.4975
0.4965
0.494
0.4955
0.492
0.493
0.491
0.4915
0.49
0.4975
0.4945
0.494
0.495
0.4955
0.4965
0.4965
0.4985
0.498
0.498
0.497
0.4965
0.4965
0.4965
0.4955
0.495
0.4955
0.495
0.4945
0.4945
0.4935
0.493
0.4935
0.4935
0.4925
0.4935
0.4925
0.4925
0.493
0.4935
0.494
0.4945
0.4955
0.496
0.4955
0.4955
0.495
0.4965
0.4955
0.495
0.4955
0.4965
0.4935
0.494
0.4925
0.493
0.4915
0.492
0.4925
0.494
0.495
0.4975
0.4975
0.4985
0.4985
0.497
0.4975
0.498
0.4985
0.499
0.4995
0.499
0.5005000000000001
0.4995
0.4995
0.5005000000000001
0.501
0.5005000000000001
0.5005000000000001
0.4995
0.5
0.4995
0.501
0.5015000000000001
0.4995
0.4995
0.4995
0.5
0.5005000000000001
0.5005000000000001
0.501
0.5
0.5
0.5005000000000001
0.4995
0.4995
0.4995
0.499
0.499
0.5005000000000001
0.5015000000000001
0.5005000000000001
0.4995
0.5
0.4995
0.4995
0.4995
0.499
0.498
0.4975
0.4975
0.498
0.497
0.4955
0.4955
0.495
0.4935
0.494
0.495
0.494
0.495
0.4945
0.494
0.4935
0.4935
0.4925
0.493
0.4925
0.4935
0.4915
0.4925
0.4935
0.493
0.4935
0.4925
0.4915
0.4925
0.492
0.4915
0.491
0.49
0.4895
0.4885
0.4885
0.487
0.4885
0.4915
0.4955
0.5005000000000001
0.5205
0.6025
0.6805
0.7095
0.6980000000000001
0.664
0.6275000000000001
0.596
0.5735
0.5555
0.5445
0.535
0.527
0.5215
0.5195
0.517
0.515
0.5105000000000001
0.5055000000000001
0.5015000000000001
0.4985
0.497
0.4945
0.4935
0.4925
0.4945
0.492
0.4935
0.4955
0.4965
0.497
0.4965
0.497
0.4995
0.4995
0.4985
0.498
0.497
0.499
0.4965
0.495
0.495
0.4945
0.493
0.493
0.4945
0.4945
0.4945
0.4945
0.4955
0.4935
0.492
0.493
0.4935
0.4935
0.493
0.492
0.4945
0.493
0.496
0.4945
0.4935
0.4925
0.4925
0.494
0.4935
0.493
0.4935
0.4945
0.494
0.4955
0.4955
0.4945
0.4945
0.498
0.4975
0.4985
0.4975
0.4965
0.4945
0.493
0.4945
0.4935
0.4925
0.4945
0.4935
0.4965
0.4955
0.495
0.4945
0.4935
0.4945
0.494
0.4965
0.4995
0.494
0.494
0.4955
0.4955
0.493
0.4955
0.493
0.4955
0.495
0.4965
0.496
0.4995
0.496
0.4975
0.4955
0.4955
0.4965
0.4965
0.5
0.4935
0.495
0.4965
0.496
0.496
0.495
0.4985
0.495
0.498
0.4965
0.4985
0.497
0.4965
0.497
0.493
0.498
0.4965
0.498
0.499
0.5
0.4965
0.498
0.4955
0.4985
0.4925
0.4965
0.4935
0.4935
0.491
0.4905
0.4915
0.493
0.493
0.495
0.5005000000000001
0.5485
0.6205
0.6615
0.661
0.6425
0.6135
0.585
0.5645
0.5485
0.5365
0.5285
0.5235
0.5215
0.523
0.5225
0.523
0.5195
0.5145
0.5125
0.5065000000000001
0.5045000000000001
0.5035000000000001
0.5005000000000001
0.498
0.4985
0.4985
0.498
0.4985
0.4985
0.499
0.4995
0.501
0.5015000000000001
0.501
0.5025000000000001
0.501
0.5005000000000001
0.4995
0.501
0.502
0.5015000000000001
0.5015000000000001
0.4995
0.5
0.4995
0.4995
0.4995
0.5
0.5005000000000001
0.5005000000000001
0.502
0.501
0.5015000000000001
0.5005000000000001
0.501
0.4985
0.4985
0.4965
0.497
0.4955
0.4965
0.4955
0.497
0.497
0.496
0.4955
0.4955
0.4945
0.496
0.496
0.4955
0.4945
0.496
0.4955
0.495
0.4955
0.4955
0.497
0.4975
0.4985
0.499
0.5015000000000001
0.4995
0.4995
0.4985
0.5005000000000001
0.501
0.4975
0.4985
0.497
0.4955
0.4965
0.4955
0.4955
0.4955
0.4955
0.4965
0.497
0.497
0.4975
0.496
0.4965
0.4955
0.4955
0.496
0.4955
0.4965
0.4965
0.4955
0.496
0.4955
0.4965
0.4975
0.4965
0.4955
0.495
0.4945
0.495
0.4955
0.496
0.497
0.4965
0.4975
0.4975
0.4965
0.4985
0.4975
0.4935
0.4955
0.496
0.4955
0.4955
0.4955
0.4955
0.4965
0.497
0.4965
0.4965
0.495
0.4945
0.495
0.4955
0.498
0.498
0.4975
0.4965
0.497
0.496
0.4955
0.495
0.494
0.4965
0.4955
0.4965
0.498
0.4975
0.499
0.4955
0.494
0.4935
0.494
0.493
0.4935
0.4925
0.4935
0.4945
0.497
0.5005000000000001
0.5075000000000001
0.517
0.5655
0.6575
0.7105
0.711
0.6825
0.643
0.6095
0.5805
0.5595
0.543
0.531
0.522
0.5145
0.514
0.506
0.5045000000000001
0.5005000000000001
0.499
0.4955
0.4925
0.4925
0.493
0.49
0.491
0.489
0.4905
0.491
0.4925
0.494
0.493
0.4925
0.4925
0.4935
0.4935
0.494
0.4955
0.493
0.4955
0.4955
0.4945
0.495
0.4935
0.4955
0.4945
0.495
0.493
0.4965
0.497
0.4985
0.496
0.4985
0.498
0.499
0.497
0.497
0.495
0.499
0.4965
0.493
0.4945
0.4985
0.496
0.4995
0.4955
0.4995
0.4985
0.4965
0.4995
0.4985
0.4975
0.4965
0.493
0.4945
0.4945
0.497
0.494
0.4985
0.494
0.498
0.498
0.499
0.502
0.5005000000000001
0.5005000000000001
0.4995
0.501
0.5015000000000001
0.4975
0.5035000000000001
0.501
0.501
0.502
0.5015000000000001
0.502
0.501
0.5025000000000001
0.5035000000000001
0.5045000000000001
0.5055000000000001
0.5035000000000001
0.5035000000000001
0.502
0.503
0.503
0.503
0.5035000000000001
0.5025000000000001
0.503
0.5035000000000001
0.5045000000000001
0.5045000000000001
0.5035000000000001
0.504
0.504
0.5045000000000001
0.504
0.5045000000000001
0.507
0.5035000000000001
0.5025000000000001
0.5015000000000001
0.501
0.5
0.4995
0.498
0.4995
0.5005000000000001
0.499
0.4975
0.498
0.498
0.4975
0.497
0.4975
0.497
0.4955
0.4945
0.494
0.4935
0.4915
0.4925
0.4895
0.491
0.4915
0.492
0.4935
0.495
0.4975
0.5025000000000001
0.512
0.537
0.5655
0.5805
0.5765
0.5650000000000001
0.5515
0.5425
0.5365
0.5335
0.527
0.5285
0.5275
0.5295
0.5325
0.5305
0.5285
0.524
0.5205
0.514
0.5105000000000001
0.507
0.5045000000000001
0.503
0.5015000000000001
0.5015000000000001
0.502
0.4985
0.5015000000000001
0.5025000000000001
0.5015000000000001
0.503
0.5035000000000001
0.5025000000000001
0.5025000000000001
0.5035000000000001
0.503
0.504
0.5035000000000001
0.5035000000000001
0.5045000000000001
0.504
0.5035000000000001
0.5035000000000001
0.5035000000000001
0.503
0.504
0.5045000000000001
0.5045000000000001
0.5045000000000001
0.5015000000000001
0.5025000000000001
0.505
0.504
0.504
0.5025000000000001
0.502
0.5005000000000001
0.501
0.5015000000000001
0.502
0.5025000000000001
0.503
0.5035000000000001
0.5035000000000001
0.5035000000000001
0.5035000000000001
0.504
0.5055000000000001
0.5035000000000001
0.503
0.5025000000000001
0.503
0.5025000000000001
0.5025000000000001
0.502
0.5035000000000001
0.5025000000000001
0.504
0.5025000000000001
0.5035000000000001
0.5015000000000001
0.5035000000000001
0.502
0.503
0.5025000000000001
0.5035000000000001
0.5025000000000001
0.5035000000000001
0.5035000000000001
0.5025000000000001
0.4995
0.504
0.5025000000000001
0.504
0.5045000000000001
0.504
0.5025000000000001
0.5025000000000001
0.5025000000000001
0.5035000000000001
0.5045000000000001
0.502
0.5015000000000001
0.501
0.501
0.501
0.5005000000000001
0.499
0.499
0.4995
0.4975
0.4975
0.4975
0.4975
0.4965
0.498
0.4975
0.4965
0.4975
0.4975
0.4965
0.4965
0.496
0.497
0.4985
0.499
0.4995
0.4985
0.5005000000000001
0.5025000000000001
0.4995
0.499
0.4975
0.497
0.4975
0.5
0.4995
0.498
0.498
0.4975
0.4985
0.4985
0.5005000000000001
0.4995
0.5015000000000001
0.5015000000000001
0.5045000000000001
0.5025000000000001
0.503
0.5045000000000001
0.506
0.5005000000000001
0.501
0.4995
0.5005000000000001
0.4985
0.498
0.4985
0.4955
0.4935
0.4945
0.4935
0.494
0.4935
0.494
0.505
0.5625
0.6355000000000001
0.669
0.6595
0.6245
0.5915
0.5670000000000001
0.5445
0.5285
0.524
0.522
0.522
0.515
0.5095000000000001
0.5065000000000001
0.5025000000000001
0.499
0.4995
0.497
0.4965
0.4975
0.4965
0.498
0.4975
0.4985
0.497
0.498
0.495
0.5025000000000001
0.5005000000000001
0.4975
0.5005000000000001
0.4985
0.495
0.4985
0.5005000000000001
0.4985
0.5005000000000001
0.499
0.499
0.4995
0.5
0.4995
0.5015000000000001
0.497
0.503
0.503
0.5035000000000001
0.501
0.4995
0.501
0.5015000000000001
0.504
0.5025000000000001
0.5025000000000001
0.5015000000000001
0.5035000000000001
0.506
0.5045000000000001
0.5025000000000001
0.5035000000000001
0.503
0.5025000000000001
0.503
0.5035000000000001
0.503
0.5035000000000001
0.5025000000000001
0.503
0.5035000000000001
0.5045000000000001
0.5045000000000001
0.5035000000000001
0.5055000000000001
0.5055000000000001
0.505
0.5055000000000001
0.5035000000000001
0.5035000000000001
0.5035000000000001
0.5035000000000001
0.503
0.503
0.504
0.503
0.503
0.503
0.5035000000000001
0.5045000000000001
0.5035000000000001
0.5075000000000001
0.507
0.503
0.504
0.5045000000000001
0.5045000000000001
0.5045000000000001
0.5045000000000001
0.504
0.5035000000000001
0.5045000000000001
0.5045000000000001
0.5045000000000001
0.5045000000000001
0.5045000000000001
0.5055000000000001
0.505
0.5035000000000001
0.505
0.5045000000000001
0.503
0.505
0.504
0.505
0.5045000000000001
0.5055000000000001
0.505
0.504
0.5045000000000001
0.5035000000000001
0.5025000000000001
0.502
0.502
0.5005000000000001
0.4985
0.498
0.4985
0.4985
0.4975
0.4995
0.499
0.4975
0.4975
0.4975
0.4975
0.497
0.497
0.4975
0.4965
0.4965
0.495
0.4955
0.4955
0.4955
0.494
0.494
0.4935
0.4955
0.4995
0.505
0.5295
0.6135
0.685
0.7095
0.6955
0.661
0.6255000000000001
0.5945
0.5720000000000001
0.5535
0.5405
0.5325
0.5235
0.518
0.5155
0.5135
0.511
0.509
0.5045000000000001
0.5025000000000001
0.4975
0.495
0.4935
0.4915
0.4915
0.4915
0.4925
0.493
0.494
0.494
0.4945
0.494
0.4945
0.496
0.4955
0.4965
0.4955
0.4965
0.4975
0.497
0.497
0.4955
0.496
0.4955
0.4955
0.4965
0.4965
0.4965
0.4965
0.497
0.4965
0.497
0.4965
0.4955
0.495
0.496
0.4955
0.4955
0.4965
0.4975
0.4985
0.5
0.4995
0.5
0.501
0.5005000000000001
0.5005000000000001
0.5005000000000001
0.5005000000000001
0.4995
0.498
0.499
0.4965
0.4965
0.4965
0.498
0.499
0.4985
0.498
0.498
0.4985
0.496
0.4955
0.4955
0.4995
0.499
0.4985
0.4965
0.496
0.498
0.4995
0.4995
0.5005000000000001
0.5005000000000001
0.5005000000000001
0.4985
0.502
0.501
0.499
0.4995
0.5005000000000001
0.5005000000000001
0.502
0.5015000000000001
0.4995
0.5005000000000001
0.501
0.5005000000000001
0.501
0.502
0.5
0.503
0.4995
0.499
0.497
0.4985
0.5005000000000001
0.5005000000000001
0.501
0.5005000000000001
0.502
0.5
0.5005000000000001
0.5005000000000001
0.502
0.497
0.502
0.499
0.5005000000000001
0.4985
0.4945
0.498
0.4985
0.5
0.499
0.5015000000000001
0.5
0.4995
0.501
0.4995
0.5015000000000001
0.499
0.498
0.499
0.5015000000000001
0.499
0.4985
0.5015000000000001
0.5045000000000001
0.5015000000000001
0.497
0.497
0.4945
0.4935
0.4975
0.5035000000000001
0.5355
0.556
0.5605
0.5455
0.532
0.5215
0.5145
0.512
0.5125
0.5075000000000001
0.5115000000000001
0.516
0.515
0.512
0.508
0.5035000000000001
0.5035000000000001
0.4995
0.502
0.503
0.4995
0.503
0.4995
0.4985
0.502
0.5025000000000001
0.503
0.5035000000000001
0.5035000000000001
0.503
0.504
0.504
0.5055000000000001
0.5055000000000001
0.505
0.504
0.505
0.5045000000000001
0.5045000000000001
0.5045000000000001
0.5035000000000001
0.5045000000000001
0.504
0.505
0.504
0.5035000000000001
0.5035000000000001
0.5035000000000001
0.5015000000000001
0.5005000000000001
0.4995
0.499
0.4995
0.4995
0.5005000000000001
0.5005000000000001
0.501
0.5
0.4985
0.5
0.502
0.5025000000000001
0.5035000000000001
0.5045000000000001
0.5045000000000001
0.504
0.505
0.506
0.5035000000000001
0.5055000000000001
0.5055000000000001
0.506
0.5055000000000001
0.5055000000000001
0.5055000000000001
0.5055000000000001
0.5055000000000001
0.5055000000000001
0.505
0.5055000000000001
0.506
0.505
0.5055000000000001
0.505
0.5055000000000001
0.505
0.505
0.505
0.5045000000000001
0.5055000000000001
0.505
0.5045000000000001
0.505
0.505
0.505
0.505
0.506
0.5055000000000001
0.504
0.5075000000000001
0.5025000000000001
0.5045000000000001
0.504
0.5035000000000001
0.504
0.5065000000000001
0.505
0.5055000000000001
0.5055000000000001
0.5075000000000001
0.5055000000000001
0.504
0.5055000000000001
0.505
0.5055000000000001
0.5055000000000001
0.5045000000000001
0.5045000000000001
0.505
0.505
0.5055000000000001
0.505
0.5055000000000001
0.5055000000000001
0.505
0.5045000000000001
0.5045000000000001
0.5045000000000001
0.5045000000000001
0.5055000000000001
0.5065000000000001
0.507
0.5035000000000001
0.5045000000000001
0.5025000000000001
0.5035000000000001
0.5035000000000001
0.5025000000000001
0.502
0.5015000000000001
0.5015000000000001
0.501
0.5015000000000001
0.5015000000000001
0.501
0.503
0.5035000000000001
0.5045000000000001
0.504
0.5035000000000001
0.503
0.5025000000000001
0.5005000000000001
0.5015000000000001
0.502
0.501
0.5015000000000001
0.5015000000000001
0.501
0.503
0.5055000000000001
0.5095000000000001
0.5285
0.5955
0.6505
0.6695
0.6605
0.6325000000000001
0.6035
0.5795
0.5605
0.546
0.534
0.527
0.5195
0.516
0.5125
0.5125
0.511
0.5065000000000001
0.5045000000000001
0.501
0.5005000000000001
0.4985
0.4975
0.4965
0.4965
0.4955
0.4955
0.4975
0.497
0.497
0.499
0.4975
0.498
0.4995
0.498
0.498
0.5
0.4975
0.4965
0.4985
0.498
0.497
0.4965
0.4975
0.4975
0.498
0.498
0.498
0.5
0.503
0.4995
0.4995
0.4965
0.499
0.499
0.4995
0.5
0.5015000000000001
0.5025000000000001
0.503
0.499
0.498
0.5005000000000001
0.502
0.501
0.5035000000000001
0.499
0.4995
0.4985
0.5005000000000001
0.4995
0.4995
0.5045000000000001
0.5035000000000001
0.5025000000000001
0.5015000000000001
0.5
0.505
0.5005000000000001
0.501
0.5015000000000001
0.5025000000000001
0.4995
0.5
0.504
0.4995
0.498
0.502
0.497
0.4985
0.497
0.498
0.4985
0.5005000000000001
0.5
0.4995
0.4995
0.4995
0.5005000000000001
0.503
0.505
0.5045000000000001
0.5065000000000001
0.501
0.503
0.502
0.5005000000000001
0.5025000000000001
0.501
0.5015000000000001
0.5045000000000001
0.502
0.5035000000000001
0.498
0.5015000000000001
0.4995
0.4995
0.498
0.5025000000000001
0.4985
0.4995
0.5015000000000001
0.5025000000000001
0.5025000000000001
0.5015000000000001
0.4995
0.5015000000000001
0.502
0.5015000000000001
0.5
0.4985
0.5025000000000001
0.5045000000000001
0.5025000000000001
0.5015000000000001
0.5015000000000001
0.5005000000000001
0.5025000000000001
0.499
0.4975
0.496
0.494
0.4935
0.4945
0.493
0.493
0.492
0.494
0.4975
0.502
0.508
0.5315
0.5625
0.579
0.577
0.5665
0.5525
0.5395
0.531
0.5235
0.5195
0.517
0.5155
0.518
0.5205
0.5215
0.5205
0.517
0.5135
0.509
0.5045000000000001
0.503
0.4995
0.498
0.4965
0.496
0.4945
0.494
0.4945
0.496
0.4975
0.497
0.4985
0.499
0.5
0.5015000000000001
0.4995
0.4995
0.5005000000000001
0.5005000000000001
0.5
0.4995
0.4995
0.499
0.499
0.4995
0.4995
0.4995
0.499
0.4995
0.4995
0.4995
0.499
0.499
0.5
0.4995
0.4995
0.5005000000000001
0.5005000000000001
0.5
0.4995
0.4995
0.5015000000000001
0.5015000000000001
0.502
0.502
0.5045000000000001
0.5025000000000001
0.502
0.5035000000000001
0.5035000000000001
0.5045000000000001
0.5045000000000001
0.5045000000000001
0.505
0.5055000000000001
0.506
0.5055000000000001
0.5055000000000001
0.5055000000000001
0.5075000000000001
0.5075000000000001
0.5065000000000001
0.5065000000000001
0.506
0.5055000000000001
0.5055000000000001
0.5055000000000001
0.5045000000000001
0.506
0.508
0.5055000000000001
0.5065000000000001
0.5065000000000001
0.506
0.5065000000000001
0.5055000000000001
0.5055000000000001
0.506
0.5055000000000001
0.5065000000000001
0.506
0.5065000000000001
0.5065000000000001
0.5065000000000001
0.507
0.506
0.506
0.506
0.5055000000000001
0.5075000000000001
0.506
0.5065000000000001
0.507
0.5085000000000001
0.507
0.5035000000000001
0.505
0.5005000000000001
0.5035000000000001
0.5035000000000001
0.5045000000000001
0.505
0.505
0.5015000000000001
0.503
0.5035000000000001
0.5035000000000001
0.503
0.5025000000000001
0.5015000000000001
0.5005000000000001
0.5
0.5
0.5005000000000001
0.5005000000000001
0.4995
0.4985
0.499
0.5005000000000001
0.501
0.5025000000000001
0.5035000000000001
0.5035000000000001
0.503
0.5035000000000001
0.503
0.5035000000000001
0.5035000000000001
0.5025000000000001
0.5025000000000001
0.5035000000000001
0.5015000000000001
0.5015000000000001
0.5
0.5005000000000001
0.4995
0.5025000000000001
0.496
0.494
0.4975
0.4945
0.4955
0.4935
0.4935
0.494
0.4975
0.507
0.5515
0.5915
0.6055
0.5985
0.5795
0.561
0.544
0.5355
0.5215
0.5195
0.5135
0.509
0.5085000000000001
0.5085000000000001
0.5095000000000001
0.5055000000000001
0.5035000000000001
0.5005000000000001
0.502
0.4995
0.4965
0.4975
0.4975
0.4955
0.4965
0.498
0.497
0.4975
0.4975
0.499
0.497
0.4995
0.5005000000000001
0.4995
0.5015000000000001
0.502
0.503
0.5025000000000001
0.503
0.5025000000000001
0.501
0.5045000000000001
0.502
0.503
0.4985
0.5035000000000001
0.503
0.502
0.5
0.505
0.501
0.5015000000000001
0.498
0.5005000000000001
0.498
0.5
0.5
0.501
0.5005000000000001
0.5015000000000001
0.5035000000000001
0.502
0.5025000000000001
0.5015000000000001
0.4995
0.501
0.5025000000000001
0.501
0.504
0.5015000000000001
0.503
0.5025000000000001
0.5065000000000001
0.506
0.5065000000000001
0.5075000000000001
0.507
0.5055000000000001
0.5045000000000001
0.5055000000000001
0.5035000000000001
0.5055000000000001
0.5055000000000001
0.5055000000000001
0.506
0.5055000000000001
0.504
0.5055000000000001
0.5035000000000001
0.5035000000000001
0.5045000000000001
0.5055000000000001
0.505
0.5055000000000001
0.505
0.5075000000000001
0.508
0.507
0.506
0.5065000000000001
0.5055000000000001
0.509
0.506
0.5055000000000001
0.5065000000000001
0.5075000000000001
0.5075000000000001
0.5075000000000001
0.508
0.5095000000000001
0.5025000000000001
0.5065000000000001
0.5075000000000001
0.507
0.5065000000000001
0.507
0.507
0.5065000000000001
0.507
0.506
0.506
0.5055000000000001
0.5065000000000001
0.507
0.5065000000000001
0.5055000000000001
0.506
0.508
0.5085000000000001
0.5065000000000001
0.506
0.507
0.5065000000000001
0.506
0.5055000000000001
0.504
0.5045000000000001
0.5035000000000001
0.503
0.5025000000000001
0.5025000000000001
0.5015000000000001
0.502
0.501
0.501
0.502
0.5025000000000001
0.5035000000000001
