0.5085000000000001
0.5115000000000001
0.5115000000000001
0.5115000000000001
0.5095000000000001
0.5115000000000001
0.511
0.512
0.5095000000000001
0.5085000000000001
0.5095000000000001
0.5105000000000001
0.511
0.513
0.511
0.5115000000000001
0.511
0.511
0.51
0.5125
0.511
0.51
0.51
0.5115000000000001
0.513
0.5135
0.513
0.511
0.5115000000000001
0.5095000000000001
0.512
0.511
0.512
0.511
0.51
0.5105000000000001
0.5095000000000001
0.5105000000000001
0.5115000000000001
0.5095000000000001
0.5105000000000001
0.511
0.5105000000000001
0.5105000000000001
0.509
0.512
0.5095000000000001
0.513
0.5115000000000001
0.513
0.5115000000000001
0.5095000000000001
0.5095000000000001
0.5115000000000001
0.51
0.5115000000000001
0.5105000000000001
0.5105000000000001
0.51
0.5115000000000001
0.51
0.51
0.5125
0.51
0.511
0.5055000000000001
0.505
0.5055000000000001
0.503
0.5095000000000001
0.523
0.5985
0.605
0.5735
0.5455
0.5295
0.524
0.5175
0.518
0.5195
0.5185
0.5145
0.5095000000000001
0.508
0.509
0.509
0.513
0.5085000000000001
0.5095000000000001
0.5125
0.511
0.509
0.511
0.5115000000000001
0.509
0.5095000000000001
0.5085000000000001
0.5115000000000001
0.509
0.509
0.51
0.51
0.5085000000000001
0.51
0.5095000000000001
0.5125
0.511
0.51
0.509
0.5115000000000001
0.511
0.5115000000000001
0.5115000000000001
0.51
0.511
0.5105000000000001
0.512
0.5135
0.5115000000000001
0.5115000000000001
0.512
0.509
0.509
0.5095000000000001
0.5095000000000001
0.512
0.5095000000000001
0.5085000000000001
0.51
0.5115000000000001
0.511
0.512
0.5115000000000001
0.51
0.512
0.5115000000000001
0.51
0.5125
0.51
0.51
0.5115000000000001
0.5115000000000001
0.5105000000000001
0.5095000000000001
0.509
0.5105000000000001
0.5105000000000001
0.5105000000000001
0.5125
0.5105000000000001
0.513
0.5075000000000001
0.509
0.5095000000000001
0.5095000000000001
0.5095000000000001
0.5105000000000001
0.5085000000000001
0.508
0.509
0.5095000000000001
0.509
0.5075000000000001
0.509
0.5065000000000001
0.506
0.506
0.5055000000000001
0.506
0.505
0.5065000000000001
0.5065000000000001
0.512
0.5225
0.529
0.5295
0.526
0.52
0.5155
0.513
0.511
0.51
0.5115000000000001
0.5135
0.514
0.512
0.5085000000000001
0.507
0.5055000000000001
0.505
0.5055000000000001
0.506
0.5065000000000001
0.5075000000000001
0.5085000000000001
0.509
0.5095000000000001
0.508
0.508
0.509
0.512
0.51
0.5095000000000001
0.509
0.5085000000000001
0.5095000000000001
0.5105000000000001
0.5095000000000001
0.5095000000000001
0.5085000000000001
0.509
0.5095000000000001
0.51
0.51
0.5105000000000001
0.5105000000000001
0.51
0.5095000000000001
0.509
0.509
0.5105000000000001
0.5105000000000001
0.5125
0.5115000000000001
0.5115000000000001
0.5095000000000001
0.5095000000000001
0.51
0.51
0.51
0.5105000000000001
0.5125
0.5105000000000001
0.51
0.5095000000000001
0.5085000000000001
0.511
0.511
0.513
0.512
0.5095000000000001
0.5135
0.5115000000000001
0.5095000000000001
0.5125
0.5105000000000001
0.5125
0.5135
0.513
0.5115000000000001
0.5065000000000001
0.5125
0.511
0.5135
0.5105000000000001
0.5115000000000001
0.5115000000000001
0.5115000000000001
0.5085000000000001
0.512
0.51
0.511
0.513
0.51
0.5115000000000001
0.511
0.5115000000000001
0.511
0.512
0.509
0.509
0.51
0.5105000000000001
0.5085000000000001
0.509
0.507
0.506
0.5055000000000001
0.505
0.5035000000000001
0.505
0.513
0.5225
0.5255
0.5225
0.5205
0.5155
0.5125
0.5125
0.5135
0.517
0.522
0.527
0.527
0.5215
0.517
0.5125
0.51
0.511
0.508
0.507
0.5085000000000001
0.5095000000000001
0.5095000000000001
0.51
0.51
0.5105000000000001
0.511
0.5115000000000001
0.511
0.5095000000000001
0.5115000000000001
0.5115000000000001
0.511
0.5125
0.512
0.512
0.51
0.5105000000000001
0.51
0.5085000000000001
0.509
0.5115000000000001
0.513
0.516
0.5115000000000001
0.5125
0.512
0.5135
0.511
0.5125
0.512
0.5125
0.5135
0.512
0.51
0.5105000000000001
0.511
0.513
0.511
0.5115000000000001
0.511
0.512
0.512
0.5095000000000001
0.5095000000000001
0.5115000000000001
0.5095000000000001
0.5145
0.5105000000000001
0.511
0.51
0.5095000000000001
0.5105000000000001
0.51
0.5085000000000001
0.5135
0.51
0.5105000000000001
0.5095000000000001
0.512
0.51
0.5115000000000001
0.5125
0.5115000000000001
0.51
0.51
0.5135
0.512
0.512
0.5115000000000001
0.5115000000000001
0.5125
0.511
0.511
0.512
0.5115000000000001
0.5125
0.512
0.5105000000000001
0.51
0.5085000000000001
0.5105000000000001
0.507
0.507
0.507
0.5065000000000001
0.507
0.51
0.5155
0.5255
0.529
0.5275
0.519
0.513
0.5105000000000001
0.5095000000000001
0.5085000000000001
0.5105000000000001
0.516
0.523
0.525
0.515
0.512
0.509
0.508
0.5085000000000001
0.5075000000000001
0.507
0.509
0.509
0.5105000000000001
0.5105000000000001
0.5105000000000001
0.5115000000000001
0.5105000000000001
0.511
0.5095000000000001
0.511
0.511
0.5115000000000001
0.511
0.5105000000000001
0.5105000000000001
0.51
0.5105000000000001
0.5105000000000001
0.5115000000000001
0.5105000000000001
0.5105000000000001
0.5135
0.512
0.513
0.514
0.513
0.512
0.513
0.512
0.5125
0.513
0.5135
0.5115000000000001
0.513
0.5115000000000001
0.513
0.5135
0.513
0.5125
0.512
0.5135
0.5115000000000001
0.5125
0.512
0.512
0.511
0.5115000000000001
0.5125
0.512
0.511
0.511
0.5125
0.5115000000000001
0.512
0.512
0.5105000000000001
0.512
0.5115000000000001
0.511
0.5115000000000001
0.512
0.512
0.513
0.5115000000000001
0.5135
0.513
0.5135
0.512
0.5115000000000001
0.5115000000000001
0.511
0.5115000000000001
0.512
0.515
0.514
0.513
0.511
0.5115000000000001
0.5135
0.512
0.5135
0.5125
0.513
0.514
0.5105000000000001
0.5105000000000001
0.5105000000000001
0.511
0.5095000000000001
0.51
0.5125
0.5105000000000001
0.5095000000000001
0.5105000000000001
0.5105000000000001
0.5075000000000001
0.5065000000000001
0.5075000000000001
0.505
0.5055000000000001
0.505
0.5075000000000001
0.52
0.5445
0.5705
0.5705
0.555
0.542
0.5335
0.5265
0.5255
0.5275
0.528
0.527
0.5225
0.5155
0.5115000000000001
0.5095000000000001
0.507
0.507
0.5055000000000001
0.508
0.5075000000000001
0.511
0.5095000000000001
0.51
0.512
0.508
0.5125
0.512
0.5115000000000001
0.5115000000000001
0.512
0.5115000000000001
0.5135
0.5135
0.509
0.5115000000000001
0.5095000000000001
0.512
0.5095000000000001
0.5115000000000001
0.5085000000000001
0.5105000000000001
0.511
0.51
0.51
0.51
0.511
0.5105000000000001
0.5105000000000001
0.51
0.5115000000000001
0.511
0.511
0.5105000000000001
0.511
0.51
0.511
0.5115000000000001
0.512
0.5105000000000001
0.5095000000000001
0.5115000000000001
0.5105000000000001
0.51
0.51
0.511
0.5115000000000001
0.511
0.513
0.5115000000000001
0.5115000000000001
0.511
0.51
0.51
0.5105000000000001
0.5105000000000001
0.5105000000000001
0.509
0.5095000000000001
0.5105000000000001
0.51
0.5105000000000001
0.5105000000000001
0.511
0.5135
0.5145
0.5115000000000001
0.513
0.5105000000000001
0.5085000000000001
0.509
0.5095000000000001
0.51
0.5105000000000001
0.51
0.5095000000000001
0.51
0.5115000000000001
0.5105000000000001
0.5095000000000001
0.508
0.5075000000000001
0.5065000000000001
0.505
0.5045000000000001
0.5045000000000001
0.505
0.5045000000000001
0.5045000000000001
0.508
0.524
0.534
0.533
0.5255
0.5185
0.5145
0.512
0.511
0.513
0.513
0.519
0.525
0.5245
0.5195
0.5165
0.512
0.51
0.509
0.5085000000000001
0.5095000000000001
0.509
0.509
0.5095000000000001
0.5095000000000001
0.51
0.5105000000000001
0.5115000000000001
0.5115000000000001
0.5105000000000001
0.5105000000000001
0.509
0.5105000000000001
0.511
0.512
0.511
0.5105000000000001
0.51
0.511
0.5095000000000001
0.509
0.5095000000000001
0.5105000000000001
0.51
0.5105000000000001
0.51
0.511
0.511
0.5095000000000001
0.5105000000000001
0.511
0.512
0.5105000000000001
0.511
0.512
0.5105000000000001
0.5105000000000001
0.511
0.511
0.5105000000000001
0.509
0.5105000000000001
0.5105000000000001
0.512
0.5105000000000001
0.51
0.5105000000000001
0.512
0.511
0.512
0.511
0.5105000000000001
0.5135
0.513
0.511
0.5125
0.512
0.509
0.509
0.512
0.5095000000000001
0.5115000000000001
0.511
0.509
0.5115000000000001
0.5125
0.509
0.5095000000000001
0.508
0.5115000000000001
0.513
0.514
0.511
0.5125
0.5115000000000001
0.5095000000000001
0.5115000000000001
0.51
0.5135
0.513
0.514
0.5105000000000001
0.514
0.5135
0.512
0.5105000000000001
0.5105000000000001
0.511
0.51
0.5095000000000001
0.5095000000000001
0.5115000000000001
0.51
0.5085000000000001
0.5085000000000001
0.509
0.5055000000000001
0.5105000000000001
0.5255
0.561
0.5765
0.5655
0.545
0.5305
0.5245
0.5195
0.518
0.5175
0.508
0.5075000000000001
0.508
0.5065000000000001
0.507
0.5095000000000001
0.5085000000000001
0.5095000000000001
0.511
0.51
0.509
0.5095000000000001
0.5105000000000001
0.5095000000000001
0.511
0.51
0.5095000000000001
0.511
0.511
0.5105000000000001
0.511
0.51
0.5105000000000001
0.513
0.511
0.512
0.5095000000000001
0.5105000000000001
0.5105000000000001
0.511
0.5095000000000001
0.5105000000000001
0.511
0.511
0.511
0.51
0.51
0.51
0.51
0.5105000000000001
0.511
0.511
0.511
0.5105000000000001
0.51
0.5105000000000001
0.512
0.511
0.511
0.5105000000000001
0.5105000000000001
0.511
0.5115000000000001
0.5105000000000001
0.5115000000000001
0.5115000000000001
0.511
0.51
0.5105000000000001
0.5115000000000001
0.511
0.5105000000000001
0.511
0.511
0.511
0.511
0.511
0.5115000000000001
0.5095000000000001
0.5115000000000001
0.5105000000000001
0.5105000000000001
0.512
0.51
0.5105000000000001
0.51
0.5095000000000001
0.511
0.511
0.512
0.5105000000000001
0.5105000000000001
0.5125
0.511
0.511
0.5085000000000001
0.5115000000000001
0.5105000000000001
0.5105000000000001
0.5115000000000001
0.511
0.5095000000000001
0.5095000000000001
0.5095000000000001
0.5085000000000001
0.507
0.5055000000000001
0.504
0.5035000000000001
0.504
0.504
0.5045000000000001
0.5055000000000001
0.512
0.5435
0.5685
0.5705
0.5555
0.5425
0.5335
0.5275
0.5225
0.5235
0.53
0.5365
0.537
0.532
0.5245
0.518
0.5145
0.513
0.509
0.5075000000000001
0.508
0.5085000000000001
0.5085000000000001
0.509
0.5095000000000001
0.511
0.5085000000000001
0.5105000000000001
0.511
0.51
0.508
0.509
0.513
0.5095000000000001
0.512
0.511
0.5105000000000001
0.511
0.509
0.51
0.5075000000000001
0.506
0.506
0.5085000000000001
0.5125
0.514
0.514
0.513
0.511
0.5115000000000001
0.5105000000000001
0.512
0.515
0.513
0.513
0.511
0.5095000000000001
0.5115000000000001
0.511
0.512
0.5105000000000001
0.509
0.5105000000000001
0.5115000000000001
0.5095000000000001
0.509
0.5095000000000001
0.5075000000000001
0.5095000000000001
0.511
0.5115000000000001
0.511
0.512
0.51
0.5125
0.5125
0.513
0.5125
0.513
0.5095000000000001
0.5105000000000001
0.509
0.5065000000000001
0.513
0.512
0.511
0.512
0.509
0.511
0.5135
0.5105000000000001
0.5115000000000001
0.509
0.51
0.5095000000000001
0.51
0.5095000000000001
0.5105000000000001
0.511
0.5095000000000001
0.509
0.509
0.508
0.508
0.5075000000000001
0.5065000000000001
0.505
0.5045000000000001
0.5045000000000001
0.5045000000000001
0.506
0.5125
0.5285
0.5385
0.537
0.5285
0.521
0.5155
0.5125
0.5095000000000001
0.5075000000000001
0.507
0.51
0.5105000000000001
0.5115000000000001
0.508
0.507
0.508
0.5065000000000001
0.506
0.508
0.5075000000000001
0.507
0.511
0.5085000000000001
0.5095000000000001
0.509
0.509
0.5095000000000001
0.5105000000000001
0.51
0.51
0.5125
0.514
0.5115000000000001
0.511
0.51
0.5105000000000001
0.5105000000000001
0.5105000000000001
0.51
0.511
0.5115000000000001
0.5105000000000001
0.51
0.5095000000000001
0.51
0.51
0.511
0.5115000000000001
0.5105000000000001
0.5095000000000001
0.5095000000000001
0.51
0.5105000000000001
0.5095000000000001
0.509
0.5095000000000001
0.5125
0.5105000000000001
0.51
0.5095000000000001
0.51
0.5105000000000001
0.511
0.5095000000000001
0.5095000000000001
0.5095000000000001
0.509
0.5095000000000001
0.5105000000000001
0.513
0.5115000000000001
0.51
0.5085000000000001
0.51
0.5105000000000001
0.511
0.5105000000000001
0.511
0.51
0.512
0.5105000000000001
0.51
0.51
0.51
0.5105000000000001
0.5105000000000001
0.5105000000000001
0.5105000000000001
0.5105000000000001
0.511
0.51
0.51
0.51
0.5105000000000001
0.5105000000000001
0.5095000000000001
0.5105000000000001
0.511
0.5115000000000001
0.5105000000000001
0.5095000000000001
0.51
0.511
0.51
0.5105000000000001
0.5105000000000001
0.5105000000000001
0.512
0.5095000000000001
0.513
0.5105000000000001
0.5065000000000001
0.5065000000000001
0.505
0.505
0.5045000000000001
0.5065000000000001
0.505
0.5075000000000001
0.5095000000000001
0.517
0.5625
0.593
0.5925
0.5675
0.5515
0.537
0.527
0.523
0.523
0.527
0.5325
0.5255
0.5225
0.5145
0.5095000000000001
0.509
0.5075000000000001
0.5045000000000001
0.5095000000000001
0.5085000000000001
0.5125
0.5105000000000001
0.5095000000000001
0.511
0.5105000000000001
0.509
0.509
0.511
0.508
0.5115000000000001
0.51
0.5125
0.5085000000000001
0.51
0.509
0.5115000000000001
0.51
0.509
0.5095000000000001
0.5085000000000001
0.51
0.5095000000000001
0.5085000000000001
0.5085000000000001
0.5095000000000001
0.51
0.5115000000000001
0.5105000000000001
0.5105000000000001
0.5105000000000001
0.5095000000000001
0.5105000000000001
0.511
0.51
0.5105000000000001
0.5095000000000001
0.5095000000000001
0.511
0.5105000000000001
0.5105000000000001
0.5105000000000001
0.51
0.509
0.5085000000000001
0.5095000000000001
0.5095000000000001
0.5095000000000001
0.51
0.51
0.51
0.5115000000000001
0.5105000000000001
0.5115000000000001
0.51
0.5095000000000001
0.509
0.509
0.509
0.509
0.509
0.5095000000000001
0.5085000000000001
0.5095000000000001
0.5095000000000001
0.51
0.5125
0.51
0.511
0.512
0.5105000000000001
0.5095000000000001
0.511
0.5095000000000001
0.509
0.508
0.5095000000000001
0.5095000000000001
0.5095000000000001
0.5085000000000001
0.5065000000000001
0.5075000000000001
0.506
0.506
0.5065000000000001
0.504
0.5045000000000001
0.5055000000000001
0.5035000000000001
0.513
0.5615
0.588
0.5785
0.5565
0.5425
0.5305
0.5215
0.5165
0.517
0.5225
0.527
0.5245
0.5195
0.5155
0.5125
0.51
0.508
0.5085000000000001
0.5075000000000001
0.5075000000000001
0.508
0.5075000000000001
0.509
0.5085000000000001
0.5105000000000001
0.509
0.51
0.508
0.5095000000000001
0.509
0.5085000000000001
0.5095000000000001
0.51
0.5095000000000001
0.509
0.5095000000000001
0.5095000000000001
0.5115000000000001
0.51
0.5105000000000001
0.511
0.5095000000000001
0.5095000000000001
0.5085000000000001
0.5095000000000001
0.509
0.5115000000000001
0.51
0.5095000000000001
0.507
0.509
0.51
0.5095000000000001
0.5105000000000001
0.51
0.5095000000000001
0.5095000000000001
0.5085000000000001
0.5085000000000001
0.509
0.5095000000000001
0.509
0.5085000000000001
0.5095000000000001
0.5095000000000001
0.509
0.51
0.5105000000000001
0.511
0.5085000000000001
0.5095000000000001
0.5115000000000001
0.51
0.5095000000000001
0.5095000000000001
0.51
0.5095000000000001
0.5085000000000001
0.5075000000000001
0.507
0.5075000000000001
0.51
0.509
0.51
0.5095000000000001
0.511
0.5095000000000001
0.51
0.5125
0.5085000000000001
0.51
0.5125
0.51
0.506
0.509
0.5115000000000001
0.511
0.5095000000000001
0.5115000000000001
0.5115000000000001
0.5085000000000001
0.511
0.511
0.5095000000000001
0.5085000000000001
0.5085000000000001
0.508
0.5085000000000001
0.5055000000000001
0.503
0.507
0.5075000000000001
0.5165
0.5615
0.5265
0.5215
0.53
0.531
0.522
0.5165
0.511
0.5075000000000001
0.5055000000000001
0.5075000000000001
0.5055000000000001
0.5065000000000001
0.5085000000000001
0.508
0.508
0.5085000000000001
0.5085000000000001
0.5095000000000001
0.5085000000000001
0.508
0.509
0.509
0.5105000000000001
0.5105000000000001
0.509
0.5095000000000001
0.509
0.5095000000000001
0.509
0.5095000000000001
0.51
0.5135
0.511
0.51
0.509
0.5095000000000001
0.5095000000000001
0.5095000000000001
0.5095000000000001
0.5095000000000001
0.5095000000000001
0.51
0.5095000000000001
0.51
0.5105000000000001
0.5095000000000001
0.5105000000000001
0.512
0.509
0.5095000000000001
0.509
0.509
0.51
0.5105000000000001
0.5115000000000001
0.5095000000000001
0.5095000000000001
0.5105000000000001
0.5095000000000001
0.5095000000000001
0.509
0.5095000000000001
0.5085000000000001
0.5095000000000001
0.5085000000000001
0.51
0.5095000000000001
0.5105000000000001
0.51
0.5095000000000001
0.5095000000000001
0.5105000000000001
0.5095000000000001
0.51
0.5085000000000001
0.5085000000000001
0.51
0.509
0.5095000000000001
0.5095000000000001
0.51
0.511
0.51
0.51
0.51
0.51
0.5095000000000001
0.5095000000000001
0.5095000000000001
0.5075000000000001
0.5095000000000001
0.509
0.512
0.509
0.5095000000000001
0.5095000000000001
0.5095000000000001
0.5095000000000001
0.51
0.51
0.51
0.509
0.509
0.507
0.506
0.5055000000000001
0.504
0.5035000000000001
0.5035000000000001
0.5045000000000001
0.504
0.505
0.508
0.5285
0.5515
0.555
0.5465
0.5355
0.529
0.5205
0.516
0.5195
0.5305
0.5405
0.5405
0.5325
0.524
0.517
0.5125
0.5095000000000001
0.507
0.5065000000000001
0.5075000000000001
0.5095000000000001
0.5095000000000001
0.508
0.508
0.5075000000000001
0.51
0.51
0.509
0.5115000000000001
0.5095000000000001
0.5085000000000001
0.5115000000000001
0.508
0.509
0.5115000000000001
0.509
0.5115000000000001
0.512
0.5135
0.5075000000000001
0.5085000000000001
0.5095000000000001
0.5125
0.5105000000000001
0.5115000000000001
0.51
0.5085000000000001
0.513
0.5085000000000001
0.509
0.5095000000000001
0.5125
0.5075000000000001
0.512
0.5105000000000001
0.509
0.5095000000000001
0.511
0.5095000000000001
0.51
0.5095000000000001
0.511
0.511
0.51
0.505
0.5115000000000001
0.5105000000000001
0.51
0.5095000000000001
0.5105000000000001
0.506
0.508
0.51
0.5075000000000001
0.5085000000000001
0.5085000000000001
0.51
0.51
0.51
0.5085000000000001
0.511
0.511
0.5095000000000001
0.5095000000000001
0.51
0.5105000000000001
0.5095000000000001
0.509
0.5095000000000001
0.5105000000000001
0.5115000000000001
0.5115000000000001
0.5105000000000001
0.5115000000000001
0.512
0.51
0.5095000000000001
0.5085000000000001
0.51
0.509
0.5085000000000001
0.5075000000000001
0.5055000000000001
0.5045000000000001
0.503
0.503
0.5035000000000001
0.5065000000000001
0.506
0.5115000000000001
0.5225
0.5265
0.524
0.519
0.5125
0.51
0.5075000000000001
0.5055000000000001
0.5075000000000001
0.515
0.517
0.5155
0.513
0.5105000000000001
0.508
0.5055000000000001
0.5045000000000001
0.504
0.507
0.5085000000000001
0.5065000000000001
0.509
0.507
0.511
0.509
0.509
0.5115000000000001
0.5105000000000001
0.509
0.5085000000000001
0.509
0.5085000000000001
0.509
0.509
0.5105000000000001
0.5095000000000001
0.5085000000000001
0.51
0.5085000000000001
0.509
0.5095000000000001
0.5095000000000001
0.508
0.509
0.5105000000000001
0.511
0.5125
0.511
0.511
0.51
0.511
0.51
0.509
0.509
0.5085000000000001
0.508
0.508
0.5085000000000001
0.509
0.5095000000000001
0.5095000000000001
0.5095000000000001
0.5085000000000001
0.5095000000000001
0.5095000000000001
0.51
0.5095000000000001
0.51
0.5095000000000001
0.51
0.5095000000000001
0.5085000000000001
0.509
0.5095000000000001
0.5095000000000001
0.509
0.51
0.509
0.51
0.51
0.51
0.51
0.51
0.5105000000000001
0.51
0.5105000000000001
0.5105000000000001
0.509
0.5095000000000001
0.511
0.51
0.5105000000000001
0.51
0.5095000000000001
0.5105000000000001
0.511
0.511
0.511
0.5115000000000001
0.509
0.5095000000000001
0.507
0.5105000000000001
0.5085000000000001
0.5105000000000001
0.509
0.5095000000000001
0.5095000000000001
0.509
0.507
0.5075000000000001
0.5065000000000001
0.5085000000000001
0.504
0.5055000000000001
0.505
0.5045000000000001
0.5015000000000001
0.51
0.5215
0.5675
0.6095
0.606
0.5785
0.5565
0.5405
0.5325
0.53
0.5315
0.528
0.522
0.514
0.506
0.5075000000000001
0.5065000000000001
0.5065000000000001
0.5075000000000001
0.5085000000000001
0.5115000000000001
0.507
0.508
0.5095000000000001
0.51
0.5085000000000001
0.5045000000000001
0.509
0.509
0.5085000000000001
0.509
0.509
0.5075000000000001
0.509
0.5085000000000001
0.5065000000000001
0.5115000000000001
0.5095000000000001
0.508
0.508
0.5085000000000001
0.5075000000000001
0.5085000000000001
0.508
0.5085000000000001
0.51
0.509
0.5085000000000001
0.5075000000000001
0.508
0.5085000000000001
0.51
0.5095000000000001
0.508
0.5075000000000001
0.5085000000000001
0.5075000000000001
0.5085000000000001
0.5085000000000001
0.51
0.5085000000000001
0.5085000000000001
0.5085000000000001
0.5085000000000001
0.509
0.509
0.5085000000000001
0.5085000000000001
0.5085000000000001
0.508
0.5085000000000001
0.508
0.509
0.5085000000000001
0.511
0.5095000000000001
0.5085000000000001
0.5085000000000001
0.5085000000000001
0.5075000000000001
0.509
0.5085000000000001
0.5085000000000001
0.508
0.5075000000000001
0.508
0.5095000000000001
0.509
0.509
0.509
0.509
0.5085000000000001
0.508
0.508
0.507
0.5075000000000001
0.511
0.5085000000000001
0.5085000000000001
0.5065000000000001
0.5065000000000001
0.5065000000000001
0.505
0.5035000000000001
0.5035000000000001
0.504
0.5035000000000001
0.5035000000000001
0.506
0.5325
0.5740000000000001
0.587
0.5745
0.555
0.5385
0.5285
0.5225
0.5195
0.517
0.518
0.5195
0.517
0.5135
0.51
0.5075000000000001
0.5065000000000001
0.506
0.505
0.5085000000000001
0.5055000000000001
0.5065000000000001
0.506
0.5075000000000001
0.507
0.5065000000000001
0.507
0.5075000000000001
0.5075000000000001
0.5075000000000001
0.508
0.5085000000000001
0.509
0.5085000000000001
0.509
0.51
0.5085000000000001
0.5075000000000001
0.507
0.5075000000000001
0.507
0.507
0.5085000000000001
0.5085000000000001
0.5085000000000001
0.5075000000000001
0.5085000000000001
0.508
0.5075000000000001
0.509
0.51
0.5105000000000001
0.508
0.5075000000000001
0.5075000000000001
0.5085000000000001
0.5085000000000001
0.5075000000000001
0.5075000000000001
0.509
0.5095000000000001
0.5085000000000001
0.5075000000000001
0.5115000000000001
0.5105000000000001
0.508
0.5085000000000001
0.509
0.51
0.5075000000000001
0.5085000000000001
0.5085000000000001
0.511
0.5105000000000001
0.5115000000000001
0.512
0.508
0.5085000000000001
0.507
0.506
0.51
0.5075000000000001
0.5065000000000001
0.5075000000000001
0.5085000000000001
0.5095000000000001
0.5085000000000001
0.5075000000000001
0.5095000000000001
0.5135
0.51
0.51
0.509
0.509
0.511
0.508
0.509
0.5065000000000001
0.509
0.5085000000000001
0.5085000000000001
0.5075000000000001
0.51
0.5085000000000001
0.5085000000000001
0.511
0.506
0.5055000000000001
0.5065000000000001
0.5155
0.5635
0.5915
0.5845
0.5625
0.5455
0.5305
0.521
0.518
0.516
0.515
0.5115000000000001
0.507
0.503
0.5015000000000001
0.502
0.5025000000000001
0.5045000000000001
0.503
0.5075000000000001
0.507
0.5075000000000001
0.5085000000000001
0.5085000000000001
0.5085000000000001
0.5075000000000001
0.5075000000000001
0.5085000000000001
0.5075000000000001
0.5075000000000001
0.5075000000000001
0.509
0.5085000000000001
0.508
0.5095000000000001
0.51
0.509
0.5085000000000001
0.5095000000000001
0.508
0.509
0.508
0.5085000000000001
0.5075000000000001
0.5065000000000001
0.507
0.507
0.508
0.509
0.5055000000000001
0.5075000000000001
0.507
0.508
0.5075000000000001
0.5075000000000001
0.507
0.5085000000000001
0.5075000000000001
0.507
0.508
0.5075000000000001
0.5085000000000001
0.508
0.5095000000000001
0.5095000000000001
0.509
0.508
0.5085000000000001
0.5075000000000001
0.5075000000000001
0.508
0.509
0.508
0.5085000000000001
0.509
0.509
0.509
0.509
0.5085000000000001
0.509
0.5075000000000001
0.5085000000000001
0.5085000000000001
0.509
0.5085000000000001
0.5075000000000001
0.5085000000000001
0.508
0.5085000000000001
0.5085000000000001
0.5075000000000001
0.5085000000000001
0.508
0.5085000000000001
0.5075000000000001
0.509
0.509
0.509
0.509
0.5085000000000001
0.5075000000000001
0.5085000000000001
0.5085000000000001
0.5085000000000001
0.5075000000000001
0.5085000000000001
0.5085000000000001
0.5085000000000001
0.509
0.5085000000000001
0.5075000000000001
0.5065000000000001
0.505
0.5045000000000001
0.503
0.5025000000000001
0.5055000000000001
0.5035000000000001
0.5035000000000001
0.5095000000000001
0.537
0.5785
0.5895
0.5760000000000001
0.5565
0.543
0.5335
0.5255
0.524
0.5375
0.549
0.552
0.5435
0.533
0.5245
0.5175
0.5135
0.5095000000000001
0.507
0.5075000000000001
0.508
0.507
0.5065000000000001
0.508
0.509
0.509
0.5105000000000001
0.5125
0.5075000000000001
0.5075000000000001
0.509
0.511
0.5075000000000001
0.5095000000000001
0.5095000000000001
0.5085000000000001
0.5085000000000001
0.509
0.5085000000000001
0.5125
0.5095000000000001
0.511
0.5105000000000001
0.5095000000000001
0.508
0.511
0.508
0.5095000000000001
0.5075000000000001
0.506
0.512
0.5095000000000001
0.5085000000000001
0.51
0.5095000000000001
0.5085000000000001
0.5095000000000001
0.509
0.507
0.5065000000000001
0.508
0.511
0.5105000000000001
0.5095000000000001
0.5085000000000001
0.508
0.507
0.504
0.507
0.5065000000000001
0.507
0.5085000000000001
0.508
0.5095000000000001
0.5065000000000001
0.5095000000000001
0.507
0.5085000000000001
0.5085000000000001
0.507
0.507
0.5085000000000001
0.5095000000000001
0.5105000000000001
0.5105000000000001
0.5105000000000001
0.5085000000000001
0.508
0.5075000000000001
0.507
0.5085000000000001
0.5085000000000001
0.508
0.5075000000000001
0.5065000000000001
0.509
0.508
0.5085000000000001
0.5075000000000001
0.506
0.5045000000000001
0.5055000000000001
0.504
0.505
0.5035000000000001
0.503
0.505
0.506
0.517
0.5435
0.551
0.5435
0.5325
0.5225
0.5155
0.5105000000000001
0.5085000000000001
0.5095000000000001
0.5155
0.5185
0.517
0.5135
0.5125
0.5075000000000001
0.505
0.5045000000000001
0.5045000000000001
0.5045000000000001
0.505
0.5055000000000001
0.5075000000000001
0.5065000000000001
0.5075000000000001
0.5075000000000001
0.5075000000000001
0.5085000000000001
0.5115000000000001
0.509
0.51
0.507
0.5065000000000001
0.5075000000000001
0.51
0.5095000000000001
0.507
0.506
0.5065000000000001
0.5085000000000001
0.508
0.5095000000000001
0.5095000000000001
0.5105000000000001
0.509
0.5095000000000001
0.51
0.509
0.5095000000000001
0.5075000000000001
0.509
0.5095000000000001
0.51
0.509
0.5095000000000001
0.5085000000000001
0.5085000000000001
0.5095000000000001
0.5095000000000001
0.5095000000000001
0.509
0.5095000000000001
0.509
0.511
0.509
0.5105000000000001
0.508
0.5085000000000001
0.5085000000000001
0.5085000000000001
0.509
0.5095000000000001
0.5085000000000001
0.509
0.5095000000000001
0.509
0.5095000000000001
0.5085000000000001
0.5075000000000001
0.5075000000000001
0.5075000000000001
0.5095000000000001
0.5085000000000001
0.5075000000000001
0.5075000000000001
0.5085000000000001
0.5105000000000001
0.5085000000000001
0.5075000000000001
0.508
0.508
0.5075000000000001
0.5075000000000001
0.51
0.5085000000000001
0.5085000000000001
0.5085000000000001
0.508
0.509
0.511
0.5105000000000001
0.5085000000000001
0.5095000000000001
0.507
0.51
0.5105000000000001
0.508
0.51
0.5085000000000001
0.507
0.507
0.5065000000000001
0.5045000000000001
0.508
0.5035000000000001
0.5015000000000001
0.5015000000000001
0.5055000000000001
0.5165
0.5555
0.593
0.5835
0.556
0.5375
0.529
0.517
0.525
0.5275
0.5245
0.5195
0.5155
0.509
0.506
0.505
0.5055000000000001
0.5025000000000001
0.5075000000000001
0.5055000000000001
0.509
0.5095000000000001
0.509
0.5075000000000001
0.5105000000000001
0.508
0.507
0.508
0.507
0.51
0.506
0.5075000000000001
0.5075000000000001
0.506
0.5055000000000001
0.5065000000000001
0.508
0.51
0.5095000000000001
0.511
0.5095000000000001
0.509
0.5075000000000001
0.5075000000000001
0.509
0.5085000000000001
0.5085000000000001
0.5075000000000001
0.507
0.5075000000000001
0.5075000000000001
0.5075000000000001
0.5075000000000001
0.5085000000000001
0.508
0.5075000000000001
0.5085000000000001
0.5085000000000001
0.5095000000000001
0.5085000000000001
0.5085000000000001
0.509
0.509
0.5085000000000001
0.5065000000000001
0.5075000000000001
0.5085000000000001
0.506
0.507
0.5065000000000001
0.5075000000000001
0.508
0.5085000000000001
0.5075000000000001
0.511
0.5095000000000001
0.509
0.5085000000000001
0.5085000000000001
0.5075000000000001
0.5075000000000001
0.5085000000000001
0.509
0.5095000000000001
0.508
0.507
0.5075000000000001
0.508
0.509
0.5085000000000001
0.5075000000000001
0.5085000000000001
0.507
0.5095000000000001
0.5095000000000001
0.509
0.5095000000000001
0.5095000000000001
0.509
0.5095000000000001
0.51
0.5095000000000001
0.506
0.5055000000000001
0.506
0.502
0.5035000000000001
0.5035000000000001
0.5025000000000001
0.5035000000000001
0.5075000000000001
0.546
0.625
0.654
0.6245
0.5975
0.5740000000000001
0.556
0.5425
0.5335
0.5305
0.529
0.5305
0.5335
0.532
0.5285
0.5245
0.5195
0.517
0.5165
0.515
0.514
0.5135
0.5135
0.512
0.5125
0.513
0.514
0.5155
0.5135
0.513
0.51
0.5095000000000001
0.5105000000000001
0.5095000000000001
0.509
0.5085000000000001
0.5085000000000001
0.509
0.5085000000000001
0.5095000000000001
0.508
0.509
0.5085000000000001
0.511
0.509
0.51
0.51
0.5075000000000001
0.5085000000000001
0.5085000000000001
0.5075000000000001
0.5075000000000001
0.51
0.5105000000000001
0.5095000000000001
0.5075000000000001
0.508
0.5075000000000001
0.5075000000000001
0.51
0.509
0.508
0.508
0.5095000000000001
0.5095000000000001
0.51
0.5085000000000001
0.51
0.51
0.508
0.509
0.5085000000000001
0.5095000000000001
0.5105000000000001
0.5095000000000001
0.507
0.5105000000000001
0.51
0.5105000000000001
0.5105000000000001
0.51
0.507
0.5065000000000001
0.5095000000000001
0.5075000000000001
0.5075000000000001
0.509
0.5085000000000001
0.507
0.508
0.5075000000000001
0.5095000000000001
0.5085000000000001
0.509
0.5125
0.5105000000000001
0.51
0.509
0.5085000000000001
0.507
0.508
0.5095000000000001
0.508
0.508
0.505
0.5045000000000001
0.506
0.511
0.5075000000000001
0.509
0.5085000000000001
0.5065000000000001
0.507
0.5085000000000001
0.5065000000000001
0.508
0.5075000000000001
0.5035000000000001
0.502
0.5055000000000001
0.5025000000000001
0.503
0.5075000000000001
0.538
0.618
0.6495
0.6195
0.5765
0.5505
0.5325
0.5245
0.5205
0.519
0.512
0.5085000000000001
0.5055000000000001
0.5045000000000001
0.502
0.503
0.501
0.503
0.5055000000000001
0.5045000000000001
0.5055000000000001
0.509
0.5065000000000001
0.5055000000000001
0.507
0.507
0.508
0.5095000000000001
0.507
0.506
0.509
0.5075000000000001
0.5095000000000001
0.5075000000000001
0.504
0.5075000000000001
0.51
0.508
0.5095000000000001
0.507
0.5095000000000001
0.5095000000000001
0.5095000000000001
0.5085000000000001
0.5085000000000001
0.5075000000000001
0.5105000000000001
0.509
0.508
0.5075000000000001
0.5075000000000001
0.5085000000000001
0.507
0.51
0.51
0.51
0.51
0.509
0.51
0.509
0.5085000000000001
0.509
0.508
0.509
0.5095000000000001
0.509
0.5095000000000001
0.5095000000000001
0.509
0.509
0.5075000000000001
0.5075000000000001
0.5075000000000001
0.5085000000000001
0.508
0.5075000000000001
0.5085000000000001
0.5075000000000001
0.507
0.5055000000000001
0.5075000000000001
0.5075000000000001
0.507
0.509
0.5085000000000001
0.5085000000000001
0.509
0.5075000000000001
0.5075000000000001
0.5075000000000001
0.5075000000000001
0.506
0.506
0.506
0.505
0.506
0.5065000000000001
0.506
0.5055000000000001
0.506
0.5055000000000001
0.504
0.502
0.502
0.5015000000000001
0.5015000000000001
0.5005000000000001
0.5025000000000001
0.501
0.503
0.5055000000000001
0.5235
0.547
0.551
0.542
0.5305
0.5235
0.518
0.5155
0.519
0.5265
0.5325
0.535
0.5305
0.523
0.5165
0.5145
0.5095000000000001
0.5065000000000001
0.504
0.5045000000000001
0.5045000000000001
0.5055000000000001
0.506
0.5065000000000001
0.5055000000000001
0.5055000000000001
0.506
0.5065000000000001
0.5085000000000001
0.5065000000000001
0.5065000000000001
0.5065000000000001
0.5065000000000001
0.507
0.5065000000000001
0.5055000000000001
0.506
0.506
0.5065000000000001
0.5055000000000001
0.507
0.5065000000000001
0.505
0.506
0.5055000000000001
0.5055000000000001
0.5055000000000001
0.5065000000000001
0.5085000000000001
0.505
0.5095000000000001
0.5065000000000001
0.5055000000000001
0.507
0.5045000000000001
0.5045000000000001
0.509
0.508
0.5065000000000001
0.5045000000000001
0.506
0.5055000000000001
0.5045000000000001
0.5055000000000001
0.5075000000000001
0.51
0.5075000000000001
0.5105000000000001
0.507
0.509
0.5085000000000001
0.507
0.509
0.507
0.5065000000000001
0.5065000000000001
0.5065000000000001
0.5075000000000001
0.508
0.5095000000000001
0.5055000000000001
0.5035000000000001
0.5055000000000001
0.5075000000000001
0.508
0.5075000000000001
0.5085000000000001
0.508
0.5065000000000001
0.5065000000000001
0.5075000000000001
0.507
0.509
0.5075000000000001
0.5075000000000001
0.5095000000000001
0.507
0.5055000000000001
0.5065000000000001
0.5065000000000001
0.5055000000000001
0.506
0.505
0.5015000000000001
0.5045000000000001
0.503
0.5035000000000001
0.501
0.504
0.5095000000000001
0.5725
0.6065
0.594
0.5645
0.5465
0.531
0.519
0.5165
0.518
0.53
0.5335
0.5275
0.521
0.5135
0.508
0.506
0.5045000000000001
0.5045000000000001
0.5035000000000001
0.5045000000000001
0.5055000000000001
0.5055000000000001
0.506
0.5065000000000001
0.5065000000000001
0.5055000000000001
0.507
0.5065000000000001
0.506
0.5055000000000001
0.5045000000000001
0.5065000000000001
0.5075000000000001
0.5075000000000001
0.5065000000000001
0.507
0.5085000000000001
0.507
0.5065000000000001
0.508
0.5095000000000001
0.509
0.5075000000000001
0.5075000000000001
0.508
0.5085000000000001
0.502
0.508
0.5055000000000001
0.5105000000000001
0.511
0.506
0.5045000000000001
0.5055000000000001
0.5055000000000001
0.505
0.506
0.5055000000000001
0.506
0.506
0.5055000000000001
0.5075000000000001
0.508
0.507
0.5065000000000001
0.506
0.5075000000000001
0.508
0.5065000000000001
0.5065000000000001
0.508
0.507
0.507
0.506
0.5055000000000001
0.507
0.5065000000000001
0.5065000000000001
0.5075000000000001
0.507
0.5055000000000001
0.5055000000000001
0.506
0.506
0.5065000000000001
0.5065000000000001
0.5065000000000001
0.506
0.507
0.5075000000000001
0.5055000000000001
0.5075000000000001
0.506
0.5065000000000001
0.5045000000000001
0.507
0.507
0.5075000000000001
0.507
0.507
0.507
0.5055000000000001
0.5065000000000001
0.5055000000000001
0.5065000000000001
0.5075000000000001
0.5065000000000001
0.5065000000000001
0.5075000000000001
0.5055000000000001
0.5045000000000001
0.504
0.503
0.5025000000000001
0.501
0.5015000000000001
0.5015000000000001
0.5025000000000001
0.5045000000000001
0.512
0.5605
0.612
0.615
0.5925
0.5665
0.548
0.5355
0.5275
0.5275
0.5335
0.5385
0.533
0.5245
0.514
0.511
0.5075000000000001
0.5045000000000001
0.5035000000000001
0.502
0.503
0.506
0.5035000000000001
0.5055000000000001
0.51
0.506
0.506
0.5055000000000001
0.5065000000000001
0.5065000000000001
0.5065000000000001
0.5035000000000001
0.5115000000000001
0.506
0.51
0.5085000000000001
0.5065000000000001
0.5065000000000001
0.5085000000000001
0.506
0.5055000000000001
0.508
0.5065000000000001
0.508
0.5075000000000001
0.5075000000000001
0.5075000000000001
0.507
0.505
0.5085000000000001
0.5075000000000001
0.5085000000000001
0.5085000000000001
0.508
0.507
0.5105000000000001
0.508
0.5115000000000001
0.5075000000000001
0.507
0.5055000000000001
0.509
0.511
0.509
0.505
0.5075000000000001
0.5065000000000001
0.506
0.508
0.5075000000000001
0.5085000000000001
0.5075000000000001
0.5095000000000001
0.5085000000000001
0.5075000000000001
0.509
0.508
0.508
0.5075000000000001
0.51
0.5085000000000001
0.509
0.5075000000000001
0.508
0.5095000000000001
0.509
0.5105000000000001
0.5095000000000001
0.5095000000000001
0.509
0.51
0.51
0.51
0.51
0.5115000000000001
0.5105000000000001
0.5105000000000001
0.512
0.5115000000000001
0.5135
0.5115000000000001
0.5115000000000001
0.51
0.5095000000000001
0.5085000000000001
0.5085000000000001
0.509
0.5085000000000001
0.508
0.509
0.511
0.511
0.5105000000000001
0.51
0.51
0.5105000000000001
0.51
0.5095000000000001
0.5085000000000001
0.5075000000000001
0.507
0.506
0.506
0.5055000000000001
0.505
0.5055000000000001
0.5065000000000001
0.5125
0.5375
0.5755
0.5935
0.591
0.5775
0.5595
0.545
0.535
0.527
0.5225
0.5225
0.521
0.5215
0.5225
0.5195
0.518
0.516
0.514
0.5125
0.5105000000000001
0.51
0.508
0.5085000000000001
0.507
0.5075000000000001
0.5065000000000001
0.5085000000000001
0.508
0.508
0.509
0.51
0.5105000000000001
0.51
0.5095000000000001
0.5105000000000001
0.51
0.5095000000000001
0.508
0.5095000000000001
0.511
0.511
0.511
0.51
0.51
0.51
0.511
0.5115000000000001
0.5105000000000001
0.5105000000000001
0.512
0.5105000000000001
0.5125
0.5095000000000001
0.5085000000000001
0.509
0.509
0.511
0.511
0.5105000000000001
0.5105000000000001
0.5095000000000001
0.5095000000000001
0.5105000000000001
0.5095000000000001
0.5095000000000001
0.509
0.5095000000000001
0.51
0.5105000000000001
0.51
0.5105000000000001
0.511
0.5095000000000001
0.5105000000000001
0.51
0.5085000000000001
0.512
0.5095000000000001
0.5105000000000001
0.5095000000000001
0.5075000000000001
0.5095000000000001
0.507
0.5095000000000001
0.5075000000000001
0.5075000000000001
0.508
0.5085000000000001
0.508
0.509
0.509
0.5085000000000001
0.5095000000000001
0.51
0.5095000000000001
0.5095000000000001
0.51
0.51
0.5095000000000001
0.509
0.5095000000000001
0.51
0.5095000000000001
0.509
0.5085000000000001
0.5105000000000001
0.509
0.5085000000000001
0.5075000000000001
0.5075000000000001
0.5085000000000001
0.509
0.5095000000000001
0.5085000000000001
0.509
0.509
0.5075000000000001
0.508
0.5055000000000001
0.512
0.5085000000000001
0.511
0.5115000000000001
0.5085000000000001
0.51
0.5085000000000001
0.5095000000000001
0.5085000000000001
0.5095000000000001
0.51
0.51
0.5105000000000001
0.5095000000000001
0.5085000000000001
0.51
0.5085000000000001
0.507
0.503
0.5025000000000001
0.5005000000000001
0.4995
0.5
0.505
0.5015000000000001
0.5035000000000001
0.506
0.5065000000000001
0.5105000000000001
0.55
0.6215
0.6595
0.6465
0.6155
0.5845
0.5635
0.5455
0.5345
0.5225
0.5235
0.5215
0.522
0.517
0.5125
0.5105000000000001
0.5075000000000001
0.509
0.503
0.504
0.5075000000000001
0.5045000000000001
0.505
0.505
0.5075000000000001
0.506
0.509
0.5065000000000001
0.5065000000000001
0.5065000000000001
0.5025000000000001
0.5065000000000001
0.505
0.507
0.5065000000000001
0.506
0.5075000000000001
0.5055000000000001
0.507
0.511
0.508
0.5075000000000001
0.508
0.507
0.5055000000000001
0.5075000000000001
0.5055000000000001
0.5075000000000001
0.508
0.507
0.5095000000000001
0.506
0.51
0.5095000000000001
0.507
0.5105000000000001
0.5075000000000001
0.508
0.5085000000000001
0.508
0.508
0.5085000000000001
0.509
0.509
0.5085000000000001
0.509
0.509
0.509
0.5085000000000001
0.5095000000000001
0.5105000000000001
0.51
0.5085000000000001
0.512
0.508
0.5055000000000001
0.5105000000000001
0.507
0.5075000000000001
0.5075000000000001
0.509
0.5095000000000001
0.5075000000000001
0.5075000000000001
0.507
0.5075000000000001
0.5095000000000001
0.509
0.5085000000000001
0.509
0.5105000000000001
0.5095000000000001
0.509
0.5085000000000001
0.5095000000000001
0.509
0.5085000000000001
0.51
0.5085000000000001
0.509
0.509
0.508
0.509
0.5075000000000001
0.508
0.5085000000000001
0.507
0.5085000000000001
0.5105000000000001
0.5095000000000001
0.5095000000000001
0.5095000000000001
0.51
0.5085000000000001
0.51
0.51
0.509
0.5075000000000001
0.5075000000000001
0.508
0.5075000000000001
0.508
0.5075000000000001
0.507
0.5075000000000001
0.5075000000000001
0.5085000000000001
0.507
0.506
0.505
0.5045000000000001
0.5035000000000001
0.503
0.503
0.5025000000000001
0.5015000000000001
0.503
0.5025000000000001
0.503
0.5055000000000001
0.5245
0.5475
0.553
0.5495
0.542
0.5345
0.5275
0.523
0.5195
0.519
0.5215
0.5325
0.5455
0.552
0.5485
0.5405
0.532
0.5235
0.5185
0.5145
0.5135
0.5115000000000001
0.5095000000000001
0.5085000000000001
0.5075000000000001
0.5095000000000001
0.5085000000000001
0.5075000000000001
0.5085000000000001
0.5075000000000001
0.5075000000000001
0.5085000000000001
0.5085000000000001
0.5095000000000001
0.508
0.5075000000000001
0.5085000000000001
0.508
0.5085000000000001
0.509
0.5085000000000001
0.5075000000000001
0.5095000000000001
0.508
0.508
0.507
0.508
0.508
0.5085000000000001
0.5095000000000001
0.5085000000000001
0.51
0.508
0.507
0.508
0.5055000000000001
0.5055000000000001
0.506
0.507
0.505
0.506
0.5085000000000001
0.5055000000000001
0.5065000000000001
0.5065000000000001
0.5085000000000001
0.507
0.5105000000000001
0.5095000000000001
0.5085000000000001
0.506
0.505
0.5045000000000001
0.5055000000000001
0.5045000000000001
0.5055000000000001
0.5035000000000001
0.503
0.506
0.5045000000000001
0.5055000000000001
0.5055000000000001
0.5045000000000001
0.507
0.5055000000000001
0.5105000000000001
0.5065000000000001
0.512
0.508
0.5075000000000001
0.5095000000000001
0.506
0.5055000000000001
0.5045000000000001
0.506
0.506
0.5055000000000001
0.5075000000000001
0.504
0.5075000000000001
0.508
0.507
0.5085000000000001
0.507
0.5075000000000001
0.5065000000000001
0.5055000000000001
0.51
0.51
0.5065000000000001
0.5065000000000001
0.506
0.507
0.5055000000000001
0.5065000000000001
0.5095000000000001
0.5095000000000001
0.5075000000000001
0.506
0.505
0.5065000000000001
0.506
0.506
0.5075000000000001
0.5065000000000001
0.503
0.503
0.5015000000000001
0.502
0.4995
0.502
0.5015000000000001
0.5015000000000001
0.5045000000000001
0.5025000000000001
0.5025000000000001
0.504
0.507
0.5205
0.5465
0.5575
0.553
0.542
0.5315
0.525
0.5185
0.514
0.5135
0.512
0.515
0.525
0.5285
0.5275
0.523
0.5175
0.513
0.5105000000000001
0.5105000000000001
0.511
0.5115000000000001
0.51
0.509
0.511
0.5085000000000001
0.509
0.509
0.5085000000000001
0.509
0.509
0.509
0.5095000000000001
0.509
0.5095000000000001
0.509
0.5075000000000001
0.511
0.509
0.5085000000000001
0.5085000000000001
0.5085000000000001
0.5085000000000001
0.509
0.508
0.5095000000000001
0.5075000000000001
0.5085000000000001
0.5075000000000001
0.509
0.5085000000000001
0.5075000000000001
0.5085000000000001
0.5075000000000001
0.509
0.51
0.508
0.5085000000000001
0.5085000000000001
0.5085000000000001
0.508
0.5085000000000001
0.5085000000000001
0.511
0.51
0.5085000000000001
0.5075000000000001
0.5075000000000001
0.51
0.508
0.5085000000000001
0.506
0.507
0.5055000000000001
0.507
0.5045000000000001
0.5065000000000001
0.506
0.5055000000000001
0.507
0.507
0.507
0.508
0.5075000000000001
0.5075000000000001
0.508
0.5095000000000001
0.5065000000000001
0.5105000000000001
0.5085000000000001
0.508
0.5095000000000001
0.507
0.5065000000000001
0.5085000000000001
0.507
0.5075000000000001
0.5075000000000001
0.5075000000000001
0.5065000000000001
0.5065000000000001
0.506
0.508
0.5105000000000001
0.5095000000000001
0.5085000000000001
0.509
0.51
0.5105000000000001
0.5105000000000001
0.5105000000000001
0.511
0.51
0.51
0.51
0.5095000000000001
0.5105000000000001
0.51
0.51
0.5095000000000001
0.5105000000000001
0.509
0.5095000000000001
0.5085000000000001
0.512
0.508
0.5075000000000001
0.5085000000000001
0.5075000000000001
0.508
0.509
0.5085000000000001
0.5085000000000001
0.509
0.5075000000000001
0.511
0.5085000000000001
0.507
0.506
0.5055000000000001
0.5055000000000001
0.5035000000000001
0.5035000000000001
0.505
0.503
0.503
0.5035000000000001
0.5045000000000001
0.5075000000000001
0.5125
0.5475
0.5965
0.6085
0.5985
0.5795
0.5615
0.5465
0.5355
0.5315
0.524
0.521
0.5215
0.5255
0.5255
0.5245
0.5215
0.5165
0.512
0.5095000000000001
0.5075000000000001
0.508
0.508
0.5035000000000001
0.5035000000000001
0.5035000000000001
0.5055000000000001
0.5055000000000001
0.506
0.5055000000000001
0.506
0.5085000000000001
0.507
0.5065000000000001
0.507
0.5065000000000001
0.5065000000000001
0.5065000000000001
0.5065000000000001
0.5075000000000001
0.5065000000000001
0.5065000000000001
0.5095000000000001
0.5065000000000001
0.5065000000000001
0.5065000000000001
0.5075000000000001
0.5085000000000001
0.5035000000000001
0.506
0.507
0.5075000000000001
0.5055000000000001
0.5075000000000001
0.5075000000000001
0.5085000000000001
0.508
0.5085000000000001
0.507
0.5065000000000001
0.507
0.508
0.507
0.5075000000000001
0.5065000000000001
0.5065000000000001
0.5085000000000001
0.5065000000000001
0.5055000000000001
0.5075000000000001
0.5075000000000001
0.5085000000000001
0.505
0.5085000000000001
0.5075000000000001
0.5055000000000001
0.5085000000000001
0.5055000000000001
0.508
0.5085000000000001
0.504
0.5055000000000001
0.5055000000000001
0.5045000000000001
0.5055000000000001
0.505
0.5055000000000001
0.5035000000000001
0.507
0.5055000000000001
0.5065000000000001
0.506
0.5065000000000001
0.5055000000000001
0.5095000000000001
0.508
0.51
0.5095000000000001
0.508
0.505
0.502
0.502
0.5015000000000001
0.503
0.5025000000000001
0.504
0.5035000000000001
0.5055000000000001
0.506
0.5055000000000001
0.5065000000000001
0.5075000000000001
0.5065000000000001
0.5055000000000001
0.5075000000000001
0.5055000000000001
0.5055000000000001
0.504
0.506
0.5075000000000001
0.5065000000000001
0.5055000000000001
0.505
0.5055000000000001
0.506
0.5035000000000001
0.5025000000000001
0.5015000000000001
0.5025000000000001
0.5025000000000001
0.5015000000000001
0.501
0.503
0.503
0.506
0.5345
0.5750000000000001
0.5915
0.5855
0.5690000000000001
0.5525
0.539
0.5295
0.5235
0.52
0.517
0.517
0.518
0.52
0.5195
0.5175
0.514
0.511
0.509
0.5085000000000001
0.5055000000000001
0.5075000000000001
0.5065000000000001
0.5045000000000001
0.505
0.5065000000000001
0.5065000000000001
0.5085000000000001
0.5075000000000001
0.5075000000000001
0.5085000000000001
0.5075000000000001
0.507
0.5095000000000001
0.5085000000000001
0.5075000000000001
0.5075000000000001
0.508
0.508
0.5095000000000001
0.5085000000000001
0.5085000000000001
0.509
0.5075000000000001
0.5065000000000001
0.5055000000000001
0.5045000000000001
0.505
0.5055000000000001
0.5065000000000001
0.507
0.507
0.5075000000000001
0.507
0.508
0.5085000000000001
0.5085000000000001
0.5075000000000001
0.5075000000000001
0.5075000000000001
0.508
0.508
0.5085000000000001
0.508
0.5075000000000001
0.508
0.5085000000000001
0.509
0.5075000000000001
0.5075000000000001
0.508
0.5085000000000001
0.508
0.508
0.5085000000000001
0.5075000000000001
0.5075000000000001
0.508
0.506
0.5075000000000001
0.5075000000000001
0.5085000000000001
0.5085000000000001
0.508
0.508
0.508
0.5075000000000001
0.509
0.5085000000000001
0.508
0.5075000000000001
0.5075000000000001
0.5085000000000001
0.509
0.509
0.508
0.5085000000000001
0.5085000000000001
0.5075000000000001
0.508
0.508
0.5075000000000001
0.5085000000000001
0.508
0.508
0.5085000000000001
0.5085000000000001
0.508
0.5095000000000001
0.5075000000000001
0.508
0.5075000000000001
0.5075000000000001
0.5085000000000001
0.5085000000000001
0.5095000000000001
0.509
0.5085000000000001
0.5085000000000001
0.5085000000000001
0.5055000000000001
0.51
0.5075000000000001
0.5055000000000001
0.505
0.5075000000000001
0.5065000000000001
0.5065000000000001
0.5065000000000001
0.5075000000000001
0.507
0.5065000000000001
0.507
0.507
0.5075000000000001
0.5055000000000001
0.506
0.506
0.506
0.505
0.505
0.5035000000000001
0.503
0.5035000000000001
0.503
0.503
0.504
0.5045000000000001
0.508
0.5075000000000001
0.521
0.5655
0.605
0.6095
0.5855
0.5625
0.5415
0.5335
0.522
0.5215
0.5225
0.5205
0.5185
0.5115000000000001
0.5075000000000001
0.5055000000000001
0.5025000000000001
0.5015000000000001
0.5
0.501
0.501
0.504
0.5015000000000001
0.503
0.5045000000000001
0.5055000000000001
0.506
0.506
0.5065000000000001
0.5065000000000001
0.5045000000000001
0.5045000000000001
0.506
0.5045000000000001
0.508
0.5065000000000001
0.508
0.5065000000000001
0.504
0.5055000000000001
0.5065000000000001
0.5065000000000001
0.5055000000000001
0.5065000000000001
0.507
0.505
0.5055000000000001
0.508
0.5075000000000001
0.509
0.509
0.508
0.502
0.505
0.5065000000000001
0.507
0.504
0.5025000000000001
0.5065000000000001
0.5055000000000001
0.5035000000000001
0.503
0.5045000000000001
0.5045000000000001
0.5075000000000001
0.5075000000000001
0.506
0.5075000000000001
0.5055000000000001
0.5075000000000001
0.5055000000000001
0.506
0.5085000000000001
0.5045000000000001
0.506
0.505
0.5055000000000001
0.506
0.507
0.5085000000000001
0.5075000000000001
0.5075000000000001
0.5075000000000001
0.508
0.505
0.5075000000000001
0.51
0.5105000000000001
0.51
0.51
0.51
0.5105000000000001
0.5085000000000001
0.5095000000000001
0.5095000000000001
0.5095000000000001
0.5095000000000001
0.5095000000000001
0.51
0.5095000000000001
0.5085000000000001
0.51
0.5095000000000001
0.5095000000000001
0.5095000000000001
0.509
0.5095000000000001
0.51
0.511
0.512
0.511
0.5095000000000001
0.5105000000000001
0.5055000000000001
0.5075000000000001
0.507
0.506
0.507
0.509
0.5085000000000001
0.507
0.5085000000000001
0.508
0.507
0.5055000000000001
0.5045000000000001
0.5035000000000001
0.5025000000000001
0.501
0.5005000000000001
0.501
0.501
0.5005000000000001
0.499
0.503
0.5145
0.5515
0.5815
0.5895
0.5805
0.5640000000000001
0.549
0.539
0.529
0.5245
0.527
0.5305
0.5395
0.5475
0.549
0.545
0.5385
0.5295
0.5235
0.5185
0.516
0.5135
0.511
0.51
0.509
0.507
0.5075000000000001
0.5075000000000001
0.5075000000000001
0.5075000000000001
0.5075000000000001
0.507
0.506
0.507
0.507
0.507
0.507
0.505
0.5055000000000001
0.509
0.5065000000000001
0.506
0.5075000000000001
0.507
0.5075000000000001
0.5075000000000001
0.5075000000000001
0.507
0.507
0.507
0.5065000000000001
0.508
0.509
0.5065000000000001
0.507
0.5065000000000001
0.5055000000000001
0.5055000000000001
0.505
0.5075000000000001
0.5075000000000001
0.5075000000000001
0.508
0.5085000000000001
0.5085000000000001
0.509
0.5085000000000001
0.5075000000000001
0.508
0.51
0.509
0.509
0.5095000000000001
0.5115000000000001
0.508
0.5095000000000001
0.509
0.509
0.5095000000000001
0.5095000000000001
0.5115000000000001
0.5095000000000001
0.5085000000000001
0.509
0.5085000000000001
0.508
0.5085000000000001
0.5085000000000001
0.5095000000000001
0.509
0.5065000000000001
0.5075000000000001
0.5085000000000001
0.5075000000000001
0.508
0.508
0.5085000000000001
0.508
0.508
0.508
0.5085000000000001
0.5085000000000001
0.5085000000000001
0.5085000000000001
0.5055000000000001
0.509
0.509
0.508
0.5075000000000001
0.507
0.5095000000000001
0.509
0.507
0.5085000000000001
0.509
0.5085000000000001
0.5085000000000001
0.506
0.5065000000000001
0.5065000000000001
0.505
0.505
0.5025000000000001
0.507
0.5055000000000001
0.5035000000000001
0.5075000000000001
0.505
0.506
0.5045000000000001
0.503
0.5035000000000001
0.502
0.5055000000000001
0.505
0.5055000000000001
0.5055000000000001
0.5035000000000001
0.5055000000000001
0.503
0.504
0.5005000000000001
0.5
0.5015000000000001
0.4995
0.5015000000000001
0.5065000000000001
0.5425
0.618
0.6575
0.6565
0.6205
0.5825
0.5595
0.5425
0.53
0.522
0.5385
0.5485
0.5175
0.508
0.5095000000000001
0.5085000000000001
0.506
0.504
0.5055000000000001
0.5055000000000001
0.505
0.506
0.5025000000000001
0.5055000000000001
0.5045000000000001
0.5045000000000001
0.504
0.5045000000000001
0.5035000000000001
0.5035000000000001
0.5055000000000001
0.502
0.5015000000000001
0.503
0.502
0.5045000000000001
0.5045000000000001
0.505
0.5035000000000001
0.505
0.5055000000000001
0.506
0.5065000000000001
0.5065000000000001
0.5045000000000001
0.503
0.503
0.5035000000000001
0.504
0.5045000000000001
0.5055000000000001
0.5055000000000001
0.5055000000000001
0.506
0.506
0.5055000000000001
0.507
0.507
0.507
0.508
0.5075000000000001
0.5075000000000001
0.5075000000000001
0.507
0.507
0.507
0.5075000000000001
0.507
0.508
0.5055000000000001
0.5065000000000001
0.5035000000000001
0.5035000000000001
0.506
0.507
0.5065000000000001
0.5045000000000001
0.506
0.504
0.5025000000000001
0.503
0.5035000000000001
0.5035000000000001
0.5045000000000001
0.5035000000000001
0.5035000000000001
0.5035000000000001
0.5045000000000001
0.5035000000000001
0.5045000000000001
0.505
0.506
0.5055000000000001
0.5055000000000001
0.5065000000000001
0.5065000000000001
0.5055000000000001
0.5055000000000001
0.5055000000000001
0.5055000000000001
0.507
0.506
0.506
0.5065000000000001
0.5055000000000001
0.506
0.5085000000000001
0.5075000000000001
0.5065000000000001
0.507
0.507
0.506
0.5055000000000001
0.507
0.505
0.506
0.5075000000000001
0.5065000000000001
0.505
0.5045000000000001
0.504
0.5025000000000001
0.5045000000000001
0.5095000000000001
0.5045000000000001
0.507
0.5055000000000001
0.5025000000000001
0.5015000000000001
0.501
0.501
0.5015000000000001
0.5015000000000001
0.5015000000000001
0.5015000000000001
0.5015000000000001
0.502
0.503
0.51
0.5375
0.593
0.6235
0.622
0.6035
0.582
0.5630000000000001
0.5475
0.5375
0.529
0.525
0.5215
0.5225
0.527
0.5275
0.5255
0.521
0.516
0.511
0.508
0.506
0.504
0.5035000000000001
0.503
0.5035000000000001
0.503
0.504
0.5045000000000001
0.505
0.5055000000000001
0.505
0.5055000000000001
0.505
0.5045000000000001
0.507
0.5065000000000001
0.5055000000000001
0.5055000000000001
0.5035000000000001
0.5055000000000001
0.5045000000000001
0.505
0.5035000000000001
0.5045000000000001
0.5045000000000001
0.5045000000000001
0.5035000000000001
0.505
0.5055000000000001
0.5035000000000001
0.505
0.5055000000000001
0.505
0.502
0.5025000000000001
0.5015000000000001
0.5025000000000001
0.499
0.5005000000000001
0.5025000000000001
0.5025000000000001
0.5045000000000001
0.5045000000000001
0.5045000000000001
0.5085000000000001
0.5035000000000001
0.5035000000000001
0.5035000000000001
0.5035000000000001
0.503
0.5055000000000001
0.503
0.504
0.5035000000000001
0.5055000000000001
0.5055000000000001
0.5045000000000001
0.504
0.5025000000000001
0.5035000000000001
0.506
0.5055000000000001
0.5075000000000001
0.505
0.504
0.502
0.504
0.5055000000000001
0.5025000000000001
0.503
0.5045000000000001
0.5035000000000001
0.5055000000000001
0.5045000000000001
0.504
0.5045000000000001
0.506
0.5065000000000001
0.505
0.5045000000000001
0.5065000000000001
0.5055000000000001
0.504
0.5055000000000001
0.5025000000000001
0.502
0.5045000000000001
0.5045000000000001
0.5035000000000001
0.5035000000000001
0.502
0.506
0.5035000000000001
0.5055000000000001
0.503
0.5035000000000001
0.5035000000000001
0.5045000000000001
0.5045000000000001
0.5045000000000001
0.5005000000000001
0.505
0.502
0.506
0.503
0.5005000000000001
0.5
0.5005000000000001
0.499
0.501
0.4975
0.4995
0.499
0.5005000000000001
0.511
0.524
0.54
0.544
0.5425
0.5345
0.5265
0.52
0.5145
0.5115000000000001
0.509
0.5095000000000001
0.5135
0.5195
0.5265
0.5315
0.5285
0.5245
0.5195
0.5145
0.5115000000000001
0.5085000000000001
0.5075000000000001
0.5065000000000001
0.5055000000000001
0.5055000000000001
0.5045000000000001
0.506
0.5065000000000001
0.5055000000000001
0.5065000000000001
0.5065000000000001
0.505
0.5055000000000001
0.5055000000000001
0.5055000000000001
0.506
0.505
0.506
0.506
0.5065000000000001
0.5065000000000001
0.5065000000000001
0.508
0.5055000000000001
0.506
0.5065000000000001
0.505
0.5065000000000001
0.5075000000000001
0.5065000000000001
0.5055000000000001
0.507
0.5075000000000001
0.507
0.5055000000000001
0.5065000000000001
0.5075000000000001
0.506
0.5055000000000001
0.5065000000000001
0.5055000000000001
0.5065000000000001
0.5055000000000001
0.5065000000000001
0.506
0.5065000000000001
0.506
0.5065000000000001
0.5055000000000001
0.506
0.506
0.507
0.5065000000000001
0.5065000000000001
0.506
0.506
0.5055000000000001
0.506
0.5055000000000001
0.5065000000000001
0.506
0.5055000000000001
0.5065000000000001
0.506
0.5065000000000001
0.506
0.5065000000000001
0.5075000000000001
0.5065000000000001
0.506
0.505
0.5055000000000001
0.5065000000000001
0.506
0.5055000000000001
0.506
0.5065000000000001
0.507
0.506
0.5065000000000001
0.5055000000000001
0.5055000000000001
0.5065000000000001
0.507
0.5065000000000001
0.5075000000000001
0.507
0.506
0.506
0.5075000000000001
0.5065000000000001
0.507
0.5065000000000001
0.506
0.5055000000000001
0.506
0.5055000000000001
0.5065000000000001
0.506
0.5065000000000001
0.506
0.5065000000000001
0.5065000000000001
0.5065000000000001
0.508
0.5065000000000001
0.5075000000000001
0.507
0.5065000000000001
0.5055000000000001
0.5065000000000001
0.5075000000000001
0.5085000000000001
0.5075000000000001
0.5065000000000001
0.507
0.506
0.506
0.506
0.504
0.5035000000000001
0.505
0.5025000000000001
0.5025000000000001
0.502
0.5035000000000001
0.505
0.503
0.5015000000000001
0.506
0.519
0.5650000000000001
0.6245
0.6455
0.6345000000000001
0.608
0.5835
0.5625
0.5435
0.5345
0.526
0.5255
0.526
0.5205
0.5185
0.516
0.5115000000000001
0.5035000000000001
0.504
0.501
0.4965
0.4995
0.4975
0.4985
0.4985
0.4995
0.501
0.5015000000000001
0.5025000000000001
0.5025000000000001
0.506
0.5035000000000001
0.501
0.5015000000000001
0.502
0.5025000000000001
0.5055000000000001
0.505
0.504
0.5035000000000001
0.503
0.504
0.5035000000000001
0.5035000000000001
0.505
0.5045000000000001
0.5025000000000001
0.5045000000000001
0.5045000000000001
0.504
0.504
0.502
0.505
0.507
0.507
0.5095000000000001
0.509
0.5095000000000001
0.5035000000000001
0.5035000000000001
0.504
0.5055000000000001
0.502
0.503
0.505
0.504
0.503
0.505
0.506
0.5045000000000001
0.504
0.5065000000000001
0.5075000000000001
0.507
0.5075000000000001
0.5075000000000001
0.5055000000000001
0.507
0.503
0.507
0.5075000000000001
0.5065000000000001
0.5065000000000001
0.5055000000000001
0.507
0.508
0.5035000000000001
0.5055000000000001
0.5065000000000001
0.5085000000000001
0.507
0.5075000000000001
0.5065000000000001
0.506
0.5055000000000001
0.507
0.5065000000000001
0.507
0.5065000000000001
0.507
0.5075000000000001
0.507
0.508
0.5075000000000001
0.5075000000000001
0.5075000000000001
0.5075000000000001
0.5075000000000001
0.507
0.5075000000000001
0.507
0.507
0.5075000000000001
0.507
0.507
0.507
0.507
0.5065000000000001
0.5085000000000001
0.5075000000000001
0.507
0.506
0.5045000000000001
0.5075000000000001
0.5065000000000001
0.508
0.508
0.5075000000000001
0.5085000000000001
0.5085000000000001
0.5085000000000001
0.508
0.5075000000000001
0.508
0.507
0.506
0.5065000000000001
0.5035000000000001
0.5035000000000001
0.5
0.4995
0.5005000000000001
0.501
0.5015000000000001
0.5025000000000001
0.503
0.5105000000000001
0.552
0.602
0.6265000000000001
0.6225
0.605
0.583
0.5630000000000001
0.55
0.5415
0.5345
0.532
0.5325
0.5365
0.5405
0.541
0.5345
0.53
0.5235
0.5195
0.5175
0.515
0.512
0.5105000000000001
0.509
0.508
0.5075000000000001
0.507
0.507
0.5095000000000001
0.508
0.5085000000000001
0.5065000000000001
0.5085000000000001
0.5085000000000001
0.508
0.5075000000000001
0.5075000000000001
0.5075000000000001
0.5075000000000001
0.508
0.5075000000000001
0.5075000000000001
0.508
0.508
0.508
0.508
0.5075000000000001
0.509
0.5075000000000001
0.509
0.5085000000000001
0.507
0.508
0.5095000000000001
0.509
0.507
0.5085000000000001
0.5075000000000001
0.5075000000000001
0.508
0.507
0.5065000000000001
0.507
0.5075000000000001
0.505
0.5065000000000001
0.5055000000000001
0.5045000000000001
0.5025000000000001
0.5035000000000001
0.5045000000000001
0.5065000000000001
0.506
0.5065000000000001
0.5075000000000001
0.5065000000000001
0.506
0.5065000000000001
0.507
0.507
0.5075000000000001
0.507
0.5095000000000001
0.5075000000000001
0.5075000000000001
0.5085000000000001
0.5075000000000001
0.5075000000000001
0.508
0.5065000000000001
0.507
0.5095000000000001
0.5085000000000001
0.508
0.5075000000000001
0.508
0.509
0.5085000000000001
0.5085000000000001
0.5075000000000001
0.5095000000000001
0.5075000000000001
0.5075000000000001
0.5065000000000001
0.5075000000000001
0.5075000000000001
0.5095000000000001
0.508
0.5075000000000001
0.5075000000000001
0.5065000000000001
0.506
0.507
0.505
0.5055000000000001
0.5045000000000001
0.507
0.5055000000000001
0.5075000000000001
0.508
0.5065000000000001
0.505
0.506
0.5045000000000001
0.506
0.5065000000000001
0.5045000000000001
0.507
0.5045000000000001
0.505
0.5055000000000001
0.504
0.5065000000000001
0.5055000000000001
0.505
0.5055000000000001
0.504
0.5065000000000001
0.5065000000000001
0.5055000000000001
0.5055000000000001
0.5045000000000001
0.5065000000000001
0.5055000000000001
0.5055000000000001
0.5025000000000001
0.5045000000000001
0.503
0.5015000000000001
0.5045000000000001
0.5035000000000001
0.503
0.5035000000000001
0.5005000000000001
0.4985
0.499
0.498
0.499
0.499
0.5005000000000001
0.5
0.502
0.5045000000000001
0.51
0.5305
0.55
0.5515
0.545
0.5335
0.523
0.517
0.5125
0.51
0.5135
0.5165
0.529
0.538
0.5355
0.53
0.522
0.5125
0.5105000000000001
0.5095000000000001
0.507
0.507
0.5025000000000001
0.501
0.5
0.501
0.4985
0.5
0.5015000000000001
0.5025000000000001
0.5045000000000001
0.503
0.5035000000000001
0.5075000000000001
0.5045000000000001
0.507
0.5055000000000001
0.5045000000000001
0.505
0.5055000000000001
0.5045000000000001
0.503
0.5065000000000001
0.5045000000000001
0.5045000000000001
0.506
0.504
0.505
0.506
0.5045000000000001
0.5065000000000001
0.5075000000000001
0.5085000000000001
0.5075000000000001
0.5065000000000001
0.5065000000000001
0.5065000000000001
0.5065000000000001
0.5065000000000001
0.5075000000000001
0.508
0.5065000000000001
0.5065000000000001
0.5065000000000001
0.507
0.507
0.5085000000000001
0.5075000000000001
0.5075000000000001
0.5075000000000001
0.5075000000000001
0.5105000000000001
0.5075000000000001
0.508
0.5075000000000001
0.508
0.5085000000000001
0.5085000000000001
0.5085000000000001
0.5075000000000001
0.5085000000000001
0.5085000000000001
0.509
0.5085000000000001
0.5085000000000001
0.5075000000000001
0.508
0.508
0.508
0.5095000000000001
0.5105000000000001
0.507
0.508
0.507
0.506
0.504
0.5055000000000001
0.5065000000000001
0.506
0.5055000000000001
0.5035000000000001
0.5045000000000001
0.5055000000000001
0.505
0.5045000000000001
0.5055000000000001
0.5055000000000001
0.5065000000000001
0.508
0.5085000000000001
0.5075000000000001
0.507
0.508
0.5095000000000001
0.5085000000000001
0.507
0.509
0.5075000000000001
0.5085000000000001
0.509
0.5085000000000001
0.509
0.508
0.509
0.5085000000000001
0.5075000000000001
0.509
0.5085000000000001
0.509
0.508
0.5075000000000001
0.508
0.5085000000000001
0.508
0.5085000000000001
0.5085000000000001
0.509
0.508
0.508
0.505
0.5035000000000001
0.5035000000000001
0.5035000000000001
0.5035000000000001
0.503
0.503
0.5035000000000001
0.504
0.505
0.5045000000000001
0.508
0.5145
0.5275
0.5545
0.579
0.5885
0.5845
0.5745
0.5605
0.5505
0.5425
0.534
0.5275
0.5225
0.5205
0.5195
0.521
0.5235
0.5245
0.5215
0.5165
0.5135
0.51
0.507
0.5065000000000001
0.5055000000000001
0.5045000000000001
0.505
0.505
0.5045000000000001
0.505
0.5065000000000001
0.5075000000000001
0.5075000000000001
0.507
0.5075000000000001
0.507
0.507
0.5075000000000001
0.5075000000000001
0.508
0.508
0.5085000000000001
0.5075000000000001
0.5075000000000001
0.5075000000000001
0.5085000000000001
0.5085000000000001
0.5085000000000001
0.5085000000000001
0.5075000000000001
0.5075000000000001
0.508
0.508
0.5075000000000001
0.508
0.5075000000000001
0.5095000000000001
0.508
0.5065000000000001
0.505
0.5055000000000001
0.5055000000000001
0.5065000000000001
0.5065000000000001
0.5065000000000001
0.5065000000000001
0.507
0.507
0.5075000000000001
0.507
0.508
0.5065000000000001
0.5065000000000001
0.507
0.507
0.5055000000000001
0.5065000000000001
0.5065000000000001
0.507
0.507
0.5075000000000001
0.5065000000000001
0.5075000000000001
0.506
0.508
0.5055000000000001
0.5065000000000001
0.507
0.5075000000000001
0.506
0.5055000000000001
0.505
0.5065000000000001
0.5075000000000001
0.507
0.5065000000000001
0.507
0.5055000000000001
0.507
0.505
0.5065000000000001
0.5065000000000001
0.5075000000000001
0.5075000000000001
0.5085000000000001
0.5065000000000001
0.508
0.506
0.506
0.507
0.5055000000000001
0.5075000000000001
0.5065000000000001
0.5065000000000001
0.507
0.505
0.505
0.504
0.5045000000000001
0.505
0.504
0.503
0.504
0.5035000000000001
0.5035000000000001
0.508
0.509
0.5135
0.515
0.516
0.5165
0.5215
0.5215
0.5235
0.526
0.5285
0.525
0.521
0.521
0.5155
0.514
0.512
0.512
0.512
0.509
0.509
0.507
0.509
0.5075000000000001
0.506
0.5045000000000001
0.5025000000000001
0.5035000000000001
0.5055000000000001
0.5045000000000001
0.5075000000000001
0.514
0.5405
0.559
0.5595
0.551
0.5415
0.533
0.5235
0.5205
0.5165
0.518
0.5235
0.532
0.5365
0.537
0.5335
0.5275
0.5265
0.5175
0.516
0.5125
0.5095000000000001
0.507
0.505
0.5055000000000001
0.5045000000000001
0.5055000000000001
0.506
0.5065000000000001
0.5075000000000001
0.5075000000000001
0.5095000000000001
0.5105000000000001
0.5085000000000001
0.5075000000000001
0.5085000000000001
0.509
0.5075000000000001
0.505
0.5055000000000001
0.5055000000000001
0.5035000000000001
0.5025000000000001
0.5015000000000001
0.503
0.5025000000000001
0.5035000000000001
0.5045000000000001
0.507
0.5085000000000001
0.513
0.516
0.519
0.5225
0.5265
0.528
0.5265
0.5275
0.5255
0.525
0.5245
0.5235
0.522
0.5215
0.522
0.52
0.5205
0.521
0.5205
0.52
0.5185
0.518
0.518
0.518
0.5175
0.517
0.517
0.5165
0.5145
0.5155
0.5155
0.5145
0.514
0.5145
0.515
0.515
0.514
0.5155
0.5125
0.513
0.5155
0.514
0.5125
0.512
0.513
0.5125
0.5125
0.513
0.512
0.511
0.512
0.512
0.511
0.5115000000000001
0.5125
0.5115000000000001
0.5115000000000001
0.5105000000000001
0.5105000000000001
0.5095000000000001
0.5085000000000001
0.509
0.5085000000000001
0.509
0.508
0.509
0.5085000000000001
0.51
0.5105000000000001
0.5095000000000001
0.511
0.5055000000000001
0.5065000000000001
0.5055000000000001
0.5035000000000001
0.502
0.502
0.502
0.5035000000000001
0.503
0.5035000000000001
0.5045000000000001
0.5055000000000001
0.5055000000000001
0.505
0.5055000000000001
0.506
0.5085000000000001
0.5065000000000001
0.506
0.506
0.507
0.506
0.5055000000000001
0.507
0.506
0.506
0.505
0.505
0.5055000000000001
0.5055000000000001
0.5065000000000001
0.5055000000000001
0.5055000000000001
0.505
0.5045000000000001
0.5035000000000001
0.5025000000000001
0.5
0.4995
0.501
0.4995
0.501
0.5005000000000001
0.5015000000000001
0.5025000000000001
0.5055000000000001
0.52
0.5630000000000001
0.616
0.6415
0.6385000000000001
0.619
0.5955
0.5725
0.5535
0.539
0.529
0.5235
0.519
0.5155
0.5125
0.511
0.508
0.505
0.501
0.4985
0.498
0.496
0.4945
0.493
0.4935
0.496
0.4955
0.498
0.4975
0.4945
0.4965
0.4965
0.499
0.4935
0.4945
0.4955
0.4955
0.4985
0.4995
0.499
0.503
0.5005000000000001
0.501
0.5015000000000001
0.503
0.501
0.4985
0.4995
0.5005000000000001
0.4985
0.4995
0.499
0.5015000000000001
0.4995
0.4975
0.4985
0.499
0.4975
0.499
0.5035000000000001
0.501
0.503
0.5045000000000001
0.503
0.503
0.503
0.5055000000000001
0.5035000000000001
0.5045000000000001
0.502
0.5005000000000001
0.502
0.502
0.501
0.5005000000000001
0.499
0.502
0.4995
0.5015000000000001
0.5015000000000001
0.5015000000000001
0.5055000000000001
0.5025000000000001
0.503
0.5075000000000001
0.5085000000000001
0.5095000000000001
0.5085000000000001
0.5105000000000001
0.5105000000000001
0.5075000000000001
0.508
0.5075000000000001
0.5065000000000001
0.506
0.5055000000000001
0.506
0.5055000000000001
0.509
0.5095000000000001
0.5085000000000001
0.5045000000000001
0.503
0.5035000000000001
0.5065000000000001
0.5055000000000001
0.504
0.505
0.499
0.5005000000000001
0.4995
0.503
0.503
0.501
0.503
0.4995
0.503
0.505
0.5035000000000001
0.503
0.5065000000000001
0.506
0.5055000000000001
0.5035000000000001
0.5035000000000001
0.5035000000000001
0.501
0.503
0.503
0.503
0.5045000000000001
0.502
0.5035000000000001
0.5035000000000001
0.5035000000000001
0.5035000000000001
0.5055000000000001
0.503
0.502
0.5015000000000001
0.5
0.5
0.4985
0.4975
0.497
0.4975
0.497
0.497
0.4965
0.497
0.5
0.5145
0.5455
0.5730000000000001
0.5835
0.5815
0.5665
0.5525
0.538
0.5275
0.52
0.515
0.5135
0.512
0.5125
0.516
0.5185
0.5175
0.5125
0.5095000000000001
0.5075000000000001
0.5025000000000001
0.4985
0.4985
0.4975
0.497
0.4965
0.4955
0.4975
0.498
0.4985
0.4995
0.5015000000000001
0.497
0.4995
0.5005000000000001
0.4985
0.4995
0.497
0.4965
0.498
0.4995
0.5015000000000001
0.4995
0.501
0.501
0.5005000000000001
0.503
0.5025000000000001
0.504
0.504
0.505
0.5045000000000001
0.505
0.505
0.5045000000000001
0.5045000000000001
0.5045000000000001
0.5055000000000001
0.505
0.5055000000000001
0.503
0.503
0.5015000000000001
0.5005000000000001
0.5015000000000001
0.5015000000000001
0.5035000000000001
0.504
0.5035000000000001
0.504
0.5035000000000001
0.5035000000000001
0.5045000000000001
0.504
0.5045000000000001
0.5045000000000001
0.5045000000000001
0.5045000000000001
0.505
0.5045000000000001
0.5045000000000001
0.5055000000000001
0.5045000000000001
0.5045000000000001
0.5045000000000001
0.5055000000000001
0.5045000000000001
0.5045000000000001
0.504
0.5045000000000001
0.504
0.5065000000000001
0.5045000000000001
0.5045000000000001
0.5055000000000001
0.5045000000000001
0.5035000000000001
0.5045000000000001
0.504
0.5045000000000001
0.5035000000000001
0.5045000000000001
0.5045000000000001
0.5045000000000001
0.5045000000000001
0.505
0.5045000000000001
0.505
0.505
0.5055000000000001
0.5045000000000001
0.5045000000000001
0.5035000000000001
0.5035000000000001
0.5035000000000001
0.504
0.502
0.502
0.5025000000000001
0.5035000000000001
0.5035000000000001
0.503
0.5025000000000001
0.504
0.504
0.5045000000000001
0.5045000000000001
0.5035000000000001
0.5045000000000001
0.5045000000000001
0.5035000000000001
0.504
0.5045000000000001
0.505
0.505
0.5045000000000001
0.507
0.5025000000000001
0.503
0.5005000000000001
0.503
0.4995
0.5015000000000001
0.5015000000000001
0.4995
0.4995
0.499
0.4995
0.499
0.499
0.499
0.4975
0.4985
0.498
0.4975
0.497
0.4985
0.4965
0.4945
0.495
0.495
0.494
0.4965
0.495
0.495
0.4945
0.4965
0.4965
0.502
0.517
0.5315
0.5365
0.5335
0.5245
0.516
0.5125
0.5065000000000001
0.5025000000000001
0.4995
0.4995
0.5015000000000001
0.506
0.5065000000000001
0.507
0.5035000000000001
0.5015000000000001
0.5015000000000001
0.499
0.5005000000000001
0.4975
0.4955
0.494
0.492
0.496
0.4955
0.4965
0.4985
0.5005000000000001
0.499
0.4985
0.4985
0.4975
0.5015000000000001
0.499
0.4995
0.5015000000000001
0.4995
0.502
0.5025000000000001
0.5035000000000001
0.5055000000000001
0.5
0.503
0.5035000000000001
0.502
0.5015000000000001
0.503
0.502
0.5035000000000001
0.502
0.5055000000000001
0.5025000000000001
0.5015000000000001
0.504
0.5015000000000001
0.5035000000000001
0.504
0.503
0.504
0.506
0.505
0.5055000000000001
0.503
0.5035000000000001
0.507
0.508
0.5045000000000001
0.502
0.5015000000000001
0.4975
0.5
0.502
0.4995
0.5005000000000001
0.499
0.5015000000000001
0.5045000000000001
0.5035000000000001
0.502
0.5005000000000001
0.501
0.5
0.4995
0.501
0.4985
0.501
0.4995
0.501
0.5015000000000001
0.5035000000000001
0.5035000000000001
0.5045000000000001
0.5055000000000001
0.505
0.504
0.5055000000000001
0.5065000000000001
0.5065000000000001
0.5065000000000001
0.5045000000000001
0.5065000000000001
0.5075000000000001
0.5065000000000001
0.5055000000000001
0.5045000000000001
0.5065000000000001
0.506
0.5025000000000001
0.509
0.51
0.511
0.5095000000000001
0.509
0.5085000000000001
0.5085000000000001
0.5075000000000001
0.5065000000000001
0.506
0.5045000000000001
0.504
0.5035000000000001
0.5035000000000001
0.5035000000000001
0.5035000000000001
0.503
0.506
0.505
0.504
0.5045000000000001
0.5045000000000001
0.5045000000000001
0.5045000000000001
0.506
0.508
0.51
0.5135
0.5135
0.5155
0.5165
0.518
0.518
0.5175
0.5155
0.5145
0.515
0.5115000000000001
0.5115000000000001
0.512
0.5205
0.5405
0.561
0.5710000000000001
0.5715
0.5635
0.5525
0.5425
0.5335
0.5285
0.5245
0.5275
0.5255
0.527
0.5275
0.5285
0.5275
0.5265
0.5225
0.519
0.5165
0.5135
0.511
0.5085000000000001
0.507
0.5055000000000001
0.5045000000000001
0.504
0.5035000000000001
0.5035000000000001
0.5025000000000001
0.5035000000000001
0.5035000000000001
0.5035000000000001
0.5035000000000001
0.503
0.5035000000000001
0.5045000000000001
0.5055000000000001
0.506
0.507
0.508
0.5085000000000001
0.51
0.5055000000000001
0.509
0.508
0.5075000000000001
0.5085000000000001
0.507
0.5075000000000001
0.5065000000000001
0.5055000000000001
0.506
0.5055000000000001
0.504
0.504
0.5035000000000001
0.5035000000000001
0.5035000000000001
0.503
0.503
0.5025000000000001
0.5035000000000001
0.501
0.503
0.5015000000000001
0.503
0.5025000000000001
0.502
0.5025000000000001
0.5015000000000001
0.501
0.5015000000000001
0.5015000000000001
0.5015000000000001
0.502
0.5
0.501
0.5015000000000001
0.502
0.5025000000000001
0.5035000000000001
0.5025000000000001
0.5055000000000001
0.5035000000000001
0.501
0.5025000000000001
0.5025000000000001
0.502
0.501
0.502
0.501
0.501
0.5005000000000001
0.5005000000000001
0.4995
0.501
0.4995
0.4995
0.501
0.501
0.501
0.5015000000000001
0.4995
0.5005000000000001
0.5005000000000001
0.501
0.5005000000000001
0.5015000000000001
0.5005000000000001
0.5005000000000001
0.501
0.5015000000000001
0.5045000000000001
0.5025000000000001
0.5045000000000001
0.5005000000000001
0.5005000000000001
0.501
0.5035000000000001
0.5005000000000001
0.5
0.5005000000000001
0.5005000000000001
0.4995
0.5
0.5
0.5015000000000001
0.502
0.5035000000000001
0.5025000000000001
0.503
0.501
0.502
0.5015000000000001
0.5065000000000001
0.5075000000000001
0.5045000000000001
0.5065000000000001
0.5065000000000001
0.505
0.508
0.5055000000000001
0.5035000000000001
0.5045000000000001
0.5035000000000001
0.503
0.5025000000000001
0.501
0.5025000000000001
0.502
0.5015000000000001
0.5005000000000001
0.499
0.5005000000000001
0.497
0.4955
0.495
0.495
0.498
0.4955
0.4935
0.494
0.4955
0.4945
0.498
0.5165
0.5425
0.5535
0.5455
0.538
0.526
0.5185
0.5155
0.514
0.51
0.511
0.516
0.5185
0.519
0.517
0.5135
0.5115000000000001
0.5115000000000001
0.5085000000000001
0.508
0.5075000000000001
0.503
0.5035000000000001
0.503
0.5045000000000001
0.5005000000000001
0.5035000000000001
0.503
0.5
0.503
0.509
0.5125
0.523
0.526
0.534
0.5355
0.539
0.5425
0.549
0.5545
0.552
0.5485
0.5475
0.5445
0.5425
0.5405
0.5405
0.5355
0.5345
0.533
0.533
0.533
0.5325
0.5325
0.531
0.5325
0.5295
0.532
0.5315
0.53
0.528
0.527
0.5255
0.5245
0.5235
0.523
0.5215
0.5215
0.5215
0.5195
0.5195
0.5185
0.517
0.5155
0.515
0.516
0.5155
0.5155
0.5155
0.515
0.514
0.5145
0.515
0.5155
0.5165
0.513
0.5135
0.5135
0.5125
0.5115000000000001
0.5105000000000001
0.5105000000000001
0.511
0.511
0.512
0.5135
0.513
0.512
0.5125
0.5135
0.5125
0.513
0.5125
0.5125
0.5125
0.5125
0.512
0.5125
0.512
0.5115000000000001
0.511
0.511
0.512
0.5135
0.514
0.5165
0.5185
0.519
0.519
0.519
0.5205
0.5225
0.5265
0.5305
0.5335
0.5355
0.5405
0.5435
0.545
0.5455
0.5445
0.5415
0.5385
0.5355
0.5335
0.5325
0.5305
0.5295
0.529
0.5275
0.527
0.524
0.5235
0.522
0.521
0.5195
0.518
0.5175
0.5185
0.5195
0.519
0.519
0.5175
0.518
0.5255
0.5515
0.636
0.6935
0.7105
0.6945
0.6635
0.6335000000000001
0.6065
0.5845
0.5675
0.555
0.5445
0.5385
0.5345
0.5305
0.5275
0.5255
0.522
0.5185
0.515
0.514
0.5105000000000001
0.508
0.5065000000000001
0.504
0.5025000000000001
0.502
0.502
0.502
0.502
0.5035000000000001
0.505
0.505
0.507
0.51
0.5155
0.518
0.5205
0.523
0.525
0.526
0.5265
0.526
0.5245
0.5235
0.5215
0.5165
0.519
0.515
0.5155
0.5135
0.5135
0.5115000000000001
0.51
0.508
0.5105000000000001
0.51
0.5115000000000001
0.514
0.517
0.5195
0.523
0.527
0.5305
0.534
0.536
0.5375
0.5375
0.5355
0.5345
0.532
0.5305
0.526
0.525
0.523
0.5245
0.521
0.5185
0.5185
0.5175
0.515
0.5165
0.516
0.517
0.516
0.5175
0.517
0.514
0.5155
0.5145
0.5145
0.513
0.512
0.5115000000000001
0.5105000000000001
0.511
0.509
0.51
0.512
0.513
0.511
0.511
0.511
0.5095000000000001
0.5065000000000001
0.5085000000000001
0.507
0.5075000000000001
0.507
0.506
0.5035000000000001
0.502
0.5035000000000001
0.5015000000000001
0.5025000000000001
0.5035000000000001
0.5045000000000001
0.502
0.5015000000000001
0.5035000000000001
0.5015000000000001
0.5035000000000001
0.5005000000000001
0.4975
0.4995
0.5025000000000001
0.5015000000000001
0.502
0.501
0.503
0.505
0.5045000000000001
0.502
0.503
0.5055000000000001
0.5025000000000001
0.502
0.503
0.501
0.5015000000000001
0.499
0.501
0.4995
0.5
0.4995
0.502
0.497
0.494
0.4955
0.4995
0.4965
0.5015000000000001
0.502
0.505
0.5125
0.5365
0.6225
0.7015
0.72
0.6935
0.637
0.6025
0.5765
0.5605
0.5485
0.5445
0.545
0.545
0.547
0.5435
0.538
0.5315
0.5235
0.5195
0.517
0.5135
0.5105000000000001
0.509
0.5075000000000001
0.505
0.505
0.5045000000000001
0.5035000000000001
0.5045000000000001
0.5035000000000001
0.504
0.5045000000000001
0.5035000000000001
0.5035000000000001
0.503
0.5035000000000001
0.504
0.5025000000000001
0.504
0.5035000000000001
0.5025000000000001
0.503
0.5025000000000001
0.502
0.504
0.503
0.5035000000000001
0.5025000000000001
0.5015000000000001
0.501
0.5015000000000001
0.502
0.501
0.503
0.502
0.5045000000000001
0.503
0.501
0.498
0.4975
0.498
0.497
0.499
0.4955
0.4955
0.4955
0.4965
0.497
0.4965
0.4985
0.497
0.4975
0.4965
0.4965
0.4965
0.4965
0.4965
0.4955
0.4945
0.4945
0.4945
0.4945
0.4955
0.493
0.494
0.4935
0.4945
0.4945
0.4955
0.496
0.4945
0.4945
0.494
0.4935
0.4935
0.4945
0.495
0.4945
0.4955
0.4955
0.4955
0.4965
0.4965
0.4975
0.497
0.495
0.4955
0.4955
0.495
0.497
0.494
0.4955
0.4965
0.4955
0.4955
0.495
0.495
0.4955
0.4955
0.4955
0.4975
0.4995
0.501
0.4975
0.5
0.5
0.502
0.502
0.5035000000000001
0.5035000000000001
0.505
0.5055000000000001
0.5065000000000001
0.506
0.506
0.5055000000000001
0.5045000000000001
0.504
0.5035000000000001
0.5005000000000001
0.501
0.5005000000000001
0.5005000000000001
0.5025000000000001
0.5005000000000001
0.5025000000000001
0.5025000000000001
0.5015000000000001
0.501
0.5015000000000001
0.501
0.502
0.501
0.5015000000000001
0.5005000000000001
0.501
0.5005000000000001
0.4995
0.4985
0.4975
0.498
0.4975
0.4965
0.4955
0.4965
0.495
0.4955
0.4995
0.511
0.5285
0.5495
0.5515
0.5465
0.5355
0.526
0.516
0.5095000000000001
0.505
0.501
0.4995
0.5005000000000001
0.502
0.5055000000000001
0.507
0.5035000000000001
0.5005000000000001
0.4975
0.496
0.496
0.4975
0.4945
0.4935
0.492
0.492
0.4935
0.493
0.4945
0.4955
0.495
0.495
0.495
0.4985
0.495
0.4935
0.4955
0.4945
0.4945
0.4955
0.497
0.493
0.4955
0.4965
0.498
0.4975
0.498
0.4965
0.495
0.4955
0.495
0.4945
0.495
0.499
0.497
0.496
0.4965
0.494
0.495
0.4955
0.499
0.4945
0.499
0.4955
0.4955
0.4995
0.4995
0.4955
0.4965
0.4975
0.495
0.4975
0.497
0.496
0.494
0.4955
0.4945
0.4935
0.4955
0.496
0.5
0.4955
0.498
0.499
0.4975
0.499
0.498
0.4975
0.499
0.4985
0.4985
0.4975
0.5015000000000001
0.499
0.502
0.5005000000000001
0.4995
0.5025000000000001
0.501
0.4995
0.4975
0.4965
0.497
0.495
0.4955
0.497
0.497
0.4995
0.4995
0.5005000000000001
0.4985
0.5
0.5005000000000001
0.5005000000000001
0.499
0.5
0.499
0.502
0.4975
0.4985
0.498
0.499
0.499
0.499
0.503
0.4995
0.503
0.4995
0.5025000000000001
0.498
0.5
0.501
0.502
0.499
0.501
0.5015000000000001
0.5005000000000001
0.5015000000000001
0.4995
0.5005000000000001
0.4995
0.498
0.5
0.5005000000000001
0.4965
0.497
0.496
0.4955
0.4965
0.4965
0.4975
0.5005000000000001
0.5065000000000001
0.522
0.536
0.5415
0.54
0.534
0.527
0.5235
0.5185
0.512
0.5105000000000001
0.509
0.5085000000000001
0.508
0.51
0.5095000000000001
0.5095000000000001
0.5075000000000001
0.505
0.5035000000000001
0.5015000000000001
0.4995
0.498
0.4975
0.498
0.4975
0.499
0.4965
0.4995
0.5005000000000001
0.5015000000000001
0.5015000000000001
0.502
0.5015000000000001
0.5025000000000001
0.502
0.503
0.5035000000000001
0.5035000000000001
0.5035000000000001
0.503
0.503
0.503
0.5035000000000001
0.505
0.503
0.503
0.503
0.5035000000000001
0.503
0.502
0.502
0.5025000000000001
0.5025000000000001
0.5035000000000001
0.503
0.503
0.5035000000000001
0.5025000000000001
0.5025000000000001
0.5025000000000001
0.5015000000000001
0.502
0.5025000000000001
0.502
0.5025000000000001
0.5035000000000001
0.505
0.5035000000000001
0.503
0.5025000000000001
0.5025000000000001
0.504
0.504
0.5
0.5025000000000001
0.5025000000000001
0.5025000000000001
0.5025000000000001
0.503
0.503
0.503
0.5035000000000001
0.504
0.5045000000000001
0.504
0.505
0.5045000000000001
0.5045000000000001
0.5035000000000001
0.503
0.503
0.5035000000000001
0.5005000000000001
0.4975
0.4985
0.498
0.4985
0.499
0.4985
0.4975
0.498
0.499
0.501
0.4995
0.501
0.5035000000000001
0.5025000000000001
0.5015000000000001
0.4995
0.5
0.5
0.4985
0.498
0.4975
0.498
0.4985
0.4985
0.498
0.4975
0.4985
0.498
0.4945
0.4965
0.4965
0.498
0.4985
0.4985
0.4985
0.4985
0.499
0.5
0.5005000000000001
0.501
0.5015000000000001
0.503
0.502
0.501
0.4995
0.5005000000000001
0.499
0.5005000000000001
0.4995
0.5005000000000001
0.5015000000000001
0.5035000000000001
0.5
0.5045000000000001
0.501
0.501
0.499
0.5015000000000001
0.502
0.5005000000000001
0.499
0.4995
0.498
0.4985
0.4955
0.4965
0.4985
0.494
0.4955
0.493
0.494
0.4955
0.4945
0.4945
0.497
0.5065000000000001
0.536
0.554
0.5585
0.5515
0.5425
0.5325
0.5225
0.5165
0.5135
0.5125
0.5095000000000001
0.512
0.508
0.512
0.5105000000000001
0.509
0.507
0.5075000000000001
0.5035000000000001
0.5035000000000001
0.5035000000000001
0.5035000000000001
0.4985
0.5025000000000001
0.501
0.5
0.5035000000000001
0.5055000000000001
0.5055000000000001
0.5045000000000001
0.5075000000000001
0.504
0.505
0.507
0.5065000000000001
0.5055000000000001
0.506
0.505
0.507
0.506
0.507
0.509
0.5065000000000001
0.506
0.5055000000000001
0.508
0.506
0.502
0.5005000000000001
0.5015000000000001
0.501
0.501
0.501
0.499
0.5
0.503
0.503
0.5025000000000001
0.5035000000000001
0.5025000000000001
0.5025000000000001
0.5035000000000001
0.5015000000000001
0.5015000000000001
0.499
0.5
0.5005000000000001
0.5005000000000001
0.501
0.5015000000000001
0.5025000000000001
0.502
0.5035000000000001
0.503
0.505
0.5045000000000001
0.506
0.5045000000000001
0.503
0.505
0.505
0.505
0.505
0.5065000000000001
0.5055000000000001
0.5055000000000001
0.504
0.5035000000000001
0.5035000000000001
0.5035000000000001
0.5055000000000001
0.5065000000000001
0.5045000000000001
0.5025000000000001
0.5035000000000001
0.5045000000000001
0.5045000000000001
0.5045000000000001
0.5045000000000001
0.5045000000000001
0.5045000000000001
0.5045000000000001
0.5055000000000001
0.5045000000000001
0.505
0.505
0.5055000000000001
0.5055000000000001
0.5055000000000001
0.505
0.5045000000000001
0.5055000000000001
0.5055000000000001
0.505
0.5055000000000001
0.5055000000000001
0.505
0.5055000000000001
0.5055000000000001
0.504
0.5045000000000001
0.506
0.5055000000000001
0.505
0.5055000000000001
0.5035000000000001
0.5025000000000001
0.5015000000000001
0.5015000000000001
0.502
0.5005000000000001
0.5015000000000001
0.499
0.5005000000000001
0.4985
0.4995
0.4995
0.4995
0.501
0.4955
0.4965
0.496
0.496
0.495
0.4955
0.4975
0.4965
0.4965
0.496
0.4975
0.501
0.5115000000000001
0.5385
0.5695
0.5875
0.5885
0.5765
0.5615
0.5475
0.5345
0.525
0.5165
0.5115000000000001
0.5065000000000001
0.504
0.503
0.505
0.5025000000000001
0.5055000000000001
0.505
0.5035000000000001
0.502
0.4995
0.5005000000000001
0.501
0.5005000000000001
0.5005000000000001
0.5005000000000001
0.501
0.5015000000000001
0.502
0.5025000000000001
0.5035000000000001
0.5035000000000001
0.5035000000000001
0.5035000000000001
0.504
0.507
0.504
0.505
0.5055000000000001
0.5055000000000001
0.505
0.505
0.5055000000000001
0.505
0.5055000000000001
0.505
0.5055000000000001
0.506
0.5055000000000001
0.5045000000000001
0.5045000000000001
0.504
0.5035000000000001
0.5025000000000001
0.5005000000000001
0.5005000000000001
0.501
0.5015000000000001
0.501
0.505
0.5025000000000001
0.503
0.502
0.5025000000000001
0.499
0.4965
0.499
0.5005000000000001
0.4995
0.4995
0.501
0.502
0.503
0.5035000000000001
0.507
0.5045000000000001
0.5055000000000001
0.5055000000000001
0.5055000000000001
0.5075000000000001
0.504
0.5055000000000001
0.5025000000000001
0.501
0.5005000000000001
0.4995
0.4995
0.4995
0.499
0.4985
0.4995
0.4985
0.4995
0.499
0.498
0.499
0.499
0.5025000000000001
0.498
0.499
0.4985
0.498
0.4995
0.501
0.498
0.4995
0.499
0.4995
0.5
0.498
0.4975
0.5005000000000001
0.5005000000000001
0.499
0.501
0.5
0.5005000000000001
0.498
0.4985
0.5015000000000001
0.5025000000000001
0.5
0.5015000000000001
0.5025000000000001
0.504
0.5025000000000001
0.5035000000000001
0.5045000000000001
0.505
0.503
0.5055000000000001
0.5035000000000001
0.5045000000000001
0.502
0.502
0.505
0.5045000000000001
0.504
0.501
0.5025000000000001
0.5025000000000001
0.5035000000000001
0.5035000000000001
0.5025000000000001
0.5025000000000001
0.5015000000000001
0.5015000000000001
0.502
0.501
0.4985
0.4995
0.5
0.4975
0.499
0.4985
0.497
0.4975
0.4985
0.4985
0.502
0.5055000000000001
0.519
0.5635
0.611
0.629
0.6235
0.6005
0.5725
0.555
0.5445
0.5335
0.5305
0.543
0.5375
0.5105000000000001
0.5055000000000001
0.5025000000000001
0.5005000000000001
0.4995
0.498
0.5005000000000001
0.502
0.503
0.502
0.5005000000000001
0.5025000000000001
0.503
0.507
0.5035000000000001
0.502
0.5035000000000001
0.5045000000000001
0.502
0.505
0.5025000000000001
0.5
0.5
0.499
0.4985
0.4995
0.5005000000000001
0.4995
0.499
0.501
0.5005000000000001
0.502
0.5045000000000001
0.5035000000000001
0.507
0.5035000000000001
0.5055000000000001
0.5055000000000001
0.505
0.5045000000000001
0.505
0.5055000000000001
0.505
0.5065000000000001
0.5055000000000001
0.506
0.506
0.506
0.5055000000000001
0.5055000000000001
0.506
0.5045000000000001
0.5065000000000001
0.506
0.506
0.506
0.506
0.5065000000000001
0.5065000000000001
0.5055000000000001
0.5035000000000001
0.5075000000000001
0.5065000000000001
0.504
0.5055000000000001
0.5035000000000001
0.5055000000000001
0.505
0.5045000000000001
0.5045000000000001
0.5045000000000001
0.5055000000000001
0.5045000000000001
0.5055000000000001
0.505
0.5045000000000001
0.5055000000000001
0.5045000000000001
0.5045000000000001
0.505
0.5055000000000001
0.5055000000000001
0.5055000000000001
0.507
0.5055000000000001
0.506
0.5055000000000001
0.506
0.5065000000000001
0.5065000000000001
0.5065000000000001
0.5065000000000001
0.505
0.5055000000000001
0.505
0.505
0.5055000000000001
0.5055000000000001
0.505
0.504
0.5025000000000001
0.5035000000000001
0.503
0.502
0.501
0.5005000000000001
0.5005000000000001
0.5
0.5
0.5
0.5005000000000001
0.5005000000000001
0.5
0.5
0.4995
0.5
0.5025000000000001
0.502
0.5035000000000001
0.504
0.5035000000000001
0.5045000000000001
0.5035000000000001
0.507
0.5045000000000001
0.5045000000000001
0.5055000000000001
0.5055000000000001
0.5065000000000001
0.506
0.505
0.504
0.5055000000000001
0.502
0.502
0.501
0.5015000000000001
0.5015000000000001
0.501
0.5015000000000001
0.5015000000000001
0.5015000000000001
0.5015000000000001
0.5015000000000001
0.503
0.5275
0.581
0.621
0.6245
0.613
0.5915
0.5700000000000001
0.5515
0.537
0.5265
0.5185
0.5135
0.509
0.5075000000000001
0.507
0.5065000000000001
0.5045000000000001
0.5035000000000001
0.501
0.5005000000000001
0.4995
0.4995
0.5005000000000001
0.5005000000000001
0.501
0.5005000000000001
0.501
0.5015000000000001
0.503
0.5025000000000001
0.5025000000000001
0.505
0.5045000000000001
0.5045000000000001
0.505
0.5035000000000001
0.5035000000000001
0.5035000000000001
0.503
0.5015000000000001
0.5015000000000001
0.4995
0.4995
0.5
0.4995
0.4985
0.499
0.4975
0.498
0.4995
0.5005000000000001
0.501
0.5025000000000001
0.502
0.5015000000000001
0.501
0.501
0.5015000000000001
0.501
0.5005000000000001
0.5005000000000001
0.5
0.5025000000000001
0.499
0.5005000000000001
0.4985
0.5005000000000001
0.502
0.503
0.4995
0.4995
0.498
0.4995
0.501
0.498
0.502
0.501
0.4995
0.4985
0.4995
0.4985
0.4985
0.4985
0.5
0.497
0.5005000000000001
0.5005000000000001
0.5005000000000001
0.498
0.503
0.501
0.501
0.5005000000000001
0.502
0.499
0.499
0.4985
0.4995
0.499
0.5005000000000001
0.4985
0.498
0.4975
0.5005000000000001
0.499
0.5015000000000001
0.5015000000000001
0.5035000000000001
0.5045000000000001
0.5025000000000001
0.5025000000000001
0.5015000000000001
0.501
0.5
0.5015000000000001
0.504
0.5025000000000001
0.5035000000000001
0.5005000000000001
0.503
0.5035000000000001
0.5065000000000001
0.5045000000000001
0.505
0.505
0.5055000000000001
0.507
0.5065000000000001
0.5065000000000001
0.5065000000000001
0.5075000000000001
0.5065000000000001
0.5085000000000001
0.504
0.506
0.508
0.503
0.501
0.4995
0.498
0.501
0.501
0.501
0.501
0.496
0.4975
0.4935
0.4985
0.4995
0.4985
0.5015000000000001
0.503
0.516
0.54
0.5695
0.584
0.5775
0.5685
0.555
0.544
0.5305
0.5245
0.52
0.5185
0.518
0.518
0.5205
0.5195
0.515
0.5135
0.511
0.5085000000000001
0.5085000000000001
0.5105000000000001
0.5075000000000001
0.5075000000000001
0.5065000000000001
0.5065000000000001
0.5085000000000001
0.5095000000000001
0.512
0.511
0.508
0.51
0.51
0.51
0.51
0.509
0.5055000000000001
0.5055000000000001
0.5045000000000001
0.5045000000000001
0.506
0.506
0.5075000000000001
0.508
0.5075000000000001
0.5075000000000001
0.5065000000000001
0.507
0.506
0.508
0.505
0.5045000000000001
0.503
0.502
0.5015000000000001
0.5025000000000001
0.5025000000000001
0.5035000000000001
0.5035000000000001
0.5035000000000001
0.5035000000000001
0.5035000000000001
0.504
0.505
0.506
0.5055000000000001
0.5065000000000001
0.506
0.507
0.5085000000000001
0.507
0.509
0.5055000000000001
0.507
0.5075000000000001
0.5075000000000001
0.506
0.507
0.5075000000000001
0.506
0.5075000000000001
0.5065000000000001
0.5075000000000001
0.5065000000000001
0.5075000000000001
0.5065000000000001
0.5065000000000001
0.5065000000000001
0.5065000000000001
0.5065000000000001
0.506
0.5065000000000001
0.5095000000000001
0.506
0.506
0.505
0.505
0.507
0.5055000000000001
0.506
0.506
0.507
0.506
0.5065000000000001
0.5075000000000001
0.5065000000000001
0.506
0.5065000000000001
0.5065000000000001
0.5075000000000001
0.506
0.5065000000000001
0.5055000000000001
0.505
0.506
0.507
0.5035000000000001
0.5055000000000001
0.5065000000000001
0.5065000000000001
0.5055000000000001
0.5045000000000001
0.505
0.505
0.505
0.505
0.505
0.505
0.5055000000000001
0.5055000000000001
0.506
0.5055000000000001
0.5055000000000001
0.5055000000000001
0.5075000000000001
0.507
0.507
0.506
0.5055000000000001
0.506
0.503
0.5025000000000001
0.5025000000000001
0.503
0.5015000000000001
0.5005000000000001
0.4995
0.4995
0.5
0.5
0.5
0.5
0.5005000000000001
0.499
0.498
0.498
0.4985
0.4945
0.4935
0.4935
0.4905
0.4925
0.4915
0.494
0.4935
0.4945
0.502
0.529
0.5675
0.59
0.593
0.579
0.5635
0.547
0.534
0.5255
0.518
0.513
0.5105000000000001
0.5105000000000001
0.517
0.5235
0.528
0.5265
0.5205
0.5155
0.511
0.5075000000000001
0.5035000000000001
0.5005000000000001
0.502
0.4995
0.502
0.4995
0.5015000000000001
0.5015000000000001
0.5015000000000001
0.503
0.504
0.502
0.5015000000000001
0.5035000000000001
0.5015000000000001
0.5005000000000001
0.503
0.505
0.5035000000000001
0.4995
0.5
0.4995
0.5015000000000001
0.5035000000000001
0.501
0.501
0.5
0.5
0.499
0.4985
0.4995
0.499
0.5005000000000001
0.503
0.5035000000000001
0.5005000000000001
0.4995
0.499
0.5
0.5
0.4965
0.5
0.5
0.5005000000000001
0.4995
0.4985
0.5005000000000001
0.5005000000000001
0.5015000000000001
0.5005000000000001
0.502
0.501
0.5
0.503
0.5035000000000001
0.5035000000000001
0.5065000000000001
0.5055000000000001
0.5065000000000001
0.5045000000000001
0.5045000000000001
0.5065000000000001
0.5065000000000001
0.505
0.5065000000000001
0.507
0.507
0.504
0.503
0.5045000000000001
0.503
0.4985
0.5015000000000001
0.5
0.503
0.5015000000000001
0.5025000000000001
0.4995
0.5025000000000001
0.5055000000000001
0.502
0.503
0.505
0.5045000000000001
0.505
0.506
0.505
0.5045000000000001
0.507
0.5055000000000001
0.505
0.507
0.509
0.5075000000000001
0.5095000000000001
0.5095000000000001
0.5105000000000001
0.511
0.509
0.51
0.511
0.5105000000000001
0.5095000000000001
0.507
0.5065000000000001
0.5075000000000001
0.507
0.507
0.508
0.508
0.508
0.5085000000000001
0.509
0.5085000000000001
0.5085000000000001
0.511
0.509
0.5075000000000001
0.508
0.5065000000000001
0.506
0.506
0.505
0.5045000000000001
0.505
0.5045000000000001
0.5045000000000001
0.506
0.5075000000000001
0.511
0.5195
0.541
0.5665
0.5815
0.5795
0.5695
0.555
0.5425
0.533
0.5245
0.519
0.5155
0.513
0.511
0.508
0.5075000000000001
0.5055000000000001
0.504
0.5035000000000001
0.502
0.501
0.5005000000000001
0.4995
0.499
0.4995
0.498
0.4975
0.498
0.4985
0.499
0.498
0.4995
0.5
0.502
0.4975
0.501
0.502
0.5025000000000001
0.5045000000000001
0.507
0.5055000000000001
0.506
0.5085000000000001
0.5055000000000001
0.5045000000000001
0.5035000000000001
0.5025000000000001
0.502
0.5015000000000001
0.502
0.5025000000000001
0.5015000000000001
0.5005000000000001
0.5005000000000001
0.503
0.503
0.5035000000000001
0.5045000000000001
0.505
0.5035000000000001
0.505
0.5045000000000001
0.5045000000000001
0.505
0.5055000000000001
0.505
0.5055000000000001
0.5055000000000001
0.5065000000000001
0.506
0.5055000000000001
0.506
0.5065000000000001
0.5055000000000001
0.5045000000000001
0.505
0.507
0.5055000000000001
0.5045000000000001
0.5045000000000001
0.5025000000000001
0.5055000000000001
0.5045000000000001
0.5005000000000001
0.5055000000000001
0.506
0.503
0.5035000000000001
0.5035000000000001
0.5045000000000001
0.5045000000000001
0.505
0.5055000000000001
0.5055000000000001
0.505
0.5065000000000001
0.507
0.5065000000000001
0.507
0.5055000000000001
0.5065000000000001
0.506
0.5055000000000001
0.505
0.505
0.5055000000000001
0.505
0.505
0.508
0.504
0.501
0.5035000000000001
0.5005000000000001
0.5035000000000001
0.502
0.501
0.5005000000000001
0.5015000000000001
0.4995
0.5
0.5
0.4995
0.5005000000000001
0.5005000000000001
0.5005000000000001
0.5
0.4995
0.5
0.499
0.499
0.4995
0.4995
0.4995
0.501
0.5035000000000001
0.5005000000000001
0.499
0.5
0.4995
0.5005000000000001
0.4995
0.5005000000000001
0.5015000000000001
0.505
0.5035000000000001
0.5045000000000001
0.501
0.499
0.5015000000000001
0.501
0.5015000000000001
0.5
0.5
0.5005000000000001
0.4995
0.497
0.4965
0.4965
0.497
0.495
0.4945
0.495
0.494
0.493
0.4935
0.495
0.4995
0.5145
0.5565
0.605
0.628
0.6255000000000001
0.607
0.5835
0.5630000000000001
0.5495
0.5365
0.5305
0.5245
0.522
0.522
0.5265
0.5285
0.5275
0.5245
0.5195
0.5145
0.5095000000000001
0.509
0.505
0.503
0.5005000000000001
0.501
0.5
0.4995
0.499
0.4985
0.4985
0.499
0.4985
0.499
0.4995
0.4995
0.4995
0.501
0.5
0.4995
0.4995
0.5
0.4995
0.4985
0.5
0.4995
0.5005000000000001
0.502
0.4995
0.498
0.4995
0.499
0.5005000000000001
0.5005000000000001
0.502
0.4995
0.501
0.5015000000000001
0.499
0.4995
0.4995
0.499
0.5035000000000001
0.4985
0.4995
0.5035000000000001
0.5015000000000001
0.503
0.5025000000000001
0.5025000000000001
0.5065000000000001
0.502
0.501
0.501
0.5025000000000001
0.5035000000000001
0.504
0.503
0.4995
0.5005000000000001
0.5
0.5005000000000001
0.5025000000000001
0.5015000000000001
0.5015000000000001
0.502
0.502
0.5025000000000001
0.5025000000000001
0.5015000000000001
0.5015000000000001
0.5
0.4985
0.5005000000000001
0.5
0.5025000000000001
0.5025000000000001
0.503
0.5
0.503
0.5015000000000001
0.5005000000000001
0.5035000000000001
0.5005000000000001
0.501
0.5
0.501
0.503
0.5035000000000001
0.503
0.5015000000000001
0.508
0.5035000000000001
0.503
0.5015000000000001
0.503
0.501
0.5025000000000001
0.503
0.501
0.5035000000000001
0.5055000000000001
0.5055000000000001
0.509
0.5095000000000001
0.513
0.509
0.508
0.5065000000000001
0.507
0.507
0.5065000000000001
0.5035000000000001
0.503
0.503
0.5015000000000001
0.5035000000000001
0.503
0.5025000000000001
0.5035000000000001
0.504
0.5035000000000001
0.5025000000000001
0.5015000000000001
0.5015000000000001
0.502
0.5015000000000001
0.502
0.5005000000000001
0.4995
0.5015000000000001
0.5055000000000001
0.5215
0.5545
0.593
0.6105
0.602
0.585
0.5670000000000001
0.5525
0.539
0.5315
0.5235
0.5225
0.5235
0.5245
0.5235
0.5215
0.517
0.5125
0.5095000000000001
0.508
0.5055000000000001
0.505
0.5045000000000001
0.5035000000000001
0.5045000000000001
0.5025000000000001
0.503
0.5045000000000001
0.5055000000000001
0.5075000000000001
0.5095000000000001
0.5085000000000001
0.5075000000000001
0.509
0.5085000000000001
0.509
0.5095000000000001
0.5095000000000001
0.5085000000000001
0.509
0.5085000000000001
0.509
0.509
0.5095000000000001
0.509
0.509
0.5085000000000001
0.508
0.507
0.506
0.5065000000000001
0.5065000000000001
0.507
0.507
0.5075000000000001
0.508
0.5085000000000001
0.5075000000000001
0.5075000000000001
0.507
0.5065000000000001
0.507
0.5075000000000001
0.507
0.5075000000000001
0.5065000000000001
0.5075000000000001
0.506
0.508
0.5065000000000001
0.5075000000000001
0.507
0.508
0.5075000000000001
0.5075000000000001
0.507
0.508
0.5075000000000001
0.507
0.5075000000000001
0.507
0.508
0.5075000000000001
0.507
0.508
0.5085000000000001
0.5065000000000001
0.506
0.5085000000000001
0.5075000000000001
0.507
0.5065000000000001
0.5065000000000001
0.506
0.5065000000000001
0.5055000000000001
0.5055000000000001
0.5055000000000001
0.506
0.506
0.5065000000000001
0.5065000000000001
0.5075000000000001
0.5065000000000001
0.5065000000000001
0.5065000000000001
0.507
0.506
0.506
0.5075000000000001
0.5085000000000001
0.5065000000000001
0.5055000000000001
0.5065000000000001
0.5075000000000001
0.5075000000000001
0.507
0.5075000000000001
0.5065000000000001
0.507
0.509
0.507
0.5055000000000001
0.51
0.5075000000000001
0.5065000000000001
0.506
0.506
0.5065000000000001
0.5055000000000001
0.5055000000000001
0.506
0.506
0.5055000000000001
0.5045000000000001
0.5055000000000001
0.505
0.503
0.503
0.5015000000000001
0.504
0.5025000000000001
0.5025000000000001
0.502
0.503
0.5025000000000001
0.501
0.5005000000000001
0.5005000000000001
0.4995
0.5005000000000001
0.5015000000000001
0.5045000000000001
0.502
0.5015000000000001
0.502
0.5
0.5
0.4995
0.5005000000000001
0.4985
0.4935
0.4965
0.4945
0.4955
0.4995
0.4955
0.517
0.5740000000000001
0.6235
0.6315000000000001
0.613
0.588
0.5700000000000001
0.55
0.5375
0.5285
0.5205
0.518
0.5165
0.5165
0.517
0.5165
0.5125
0.5065000000000001
0.503
0.5
0.498
0.499
0.4955
0.4955
0.4965
0.4955
0.4975
0.497
0.497
0.5
0.499
0.4995
0.499
0.498
0.4985
0.4985
0.501
0.504
0.5035000000000001
0.503
0.5035000000000001
0.5045000000000001
0.505
0.5035000000000001
0.506
0.5055000000000001
0.5075000000000001
0.5055000000000001
0.506
0.505
0.5025000000000001
0.5015000000000001
0.5035000000000001
0.5035000000000001
0.505
0.5045000000000001
0.503
0.505
0.5045000000000001
0.503
0.5015000000000001
0.5005000000000001
0.4995
0.501
0.4995
0.5015000000000001
0.502
0.501
0.5015000000000001
0.4995
0.4995
0.5045000000000001
0.5035000000000001
0.505
0.5065000000000001
0.5025000000000001
0.5055000000000001
0.5005000000000001
0.502
0.501
0.5035000000000001
0.503
0.502
0.4995
0.5025000000000001
0.5005000000000001
0.503
0.5045000000000001
0.5025000000000001
0.5035000000000001
0.502
0.503
0.5035000000000001
0.5005000000000001
0.5025000000000001
0.503
0.5025000000000001
0.4995
0.502
0.5025000000000001
0.5015000000000001
0.5035000000000001
0.5055000000000001
0.505
0.504
0.505
0.504
0.5065000000000001
0.506
0.505
0.5065000000000001
0.5065000000000001
0.5055000000000001
0.506
0.507
0.507
0.508
0.508
0.5065000000000001
0.5085000000000001
0.5045000000000001
0.5075000000000001
0.508
0.507
0.5075000000000001
0.506
0.506
0.506
0.507
0.5085000000000001
0.5085000000000001
0.5085000000000001
0.509
0.5085000000000001
0.508
0.5085000000000001
0.5085000000000001
0.5085000000000001
0.508
0.5065000000000001
0.504
0.5065000000000001
0.5045000000000001
0.504
0.5025000000000001
0.5025000000000001
0.5015000000000001
0.5015000000000001
0.501
0.5
0.5015000000000001
0.5025000000000001
0.5175
0.547
0.5655
0.5690000000000001
0.561
0.5505
0.538
0.5305
0.5245
0.5195
0.514
0.516
0.5165
0.5245
0.5335
0.536
0.534
0.53
0.5255
0.5195
0.515
0.5125
0.5105000000000001
0.507
0.5045000000000001
0.502
0.501
0.5
0.5005000000000001
0.501
0.5
0.4995
0.5
0.5005000000000001
0.5015000000000001
0.5015000000000001
0.501
0.5
0.5005000000000001
0.5015000000000001
0.499
0.499
0.501
0.4995
0.4995
0.501
0.5
0.5005000000000001
0.501
0.501
0.502
0.5005000000000001
0.4995
0.4995
0.4995
0.499
0.4995
0.5025000000000001
0.504
0.501
0.503
0.5035000000000001
0.5045000000000001
0.5055000000000001
0.5055000000000001
0.505
0.506
0.506
0.506
0.5065000000000001
0.506
0.5065000000000001
0.507
0.5065000000000001
0.506
0.5065000000000001
0.509
0.506
0.5065000000000001
0.5075000000000001
0.507
0.507
0.507
0.5075000000000001
0.5075000000000001
0.5075000000000001
0.5065000000000001
0.507
0.5065000000000001
0.5065000000000001
0.5055000000000001
0.506
0.505
0.505
0.506
0.5075000000000001
0.5085000000000001
0.5065000000000001
0.5055000000000001
0.5055000000000001
0.5045000000000001
0.5035000000000001
0.5035000000000001
0.5035000000000001
0.5045000000000001
0.5055000000000001
0.505
0.5055000000000001
0.5055000000000001
0.506
0.506
0.506
0.5065000000000001
0.5065000000000001
0.5065000000000001
0.5065000000000001
0.5065000000000001
0.506
0.506
0.509
0.5065000000000001
0.5045000000000001
0.506
0.5065000000000001
0.506
0.5055000000000001
0.506
0.5045000000000001
0.506
0.5055000000000001
0.5045000000000001
0.5055000000000001
0.5085000000000001
0.5065000000000001
0.507
0.505
0.5065000000000001
0.5055000000000001
0.5075000000000001
0.508
0.5085000000000001
0.508
0.503
0.499
0.5045000000000001
0.503
0.504
0.5035000000000001
0.505
0.504
0.507
0.507
0.5075000000000001
0.5075000000000001
0.5055000000000001
0.5045000000000001
0.5035000000000001
0.5
0.5
0.5045000000000001
0.5045000000000001
0.503
0.5025000000000001
0.5045000000000001
0.5055000000000001
0.5045000000000001
0.51
0.529
0.5635
0.5885
0.593
0.5835
0.5710000000000001
0.5515
0.5385
0.529
0.524
0.5215
0.516
0.513
0.516
0.5135
0.5145
0.5125
0.51
0.5055000000000001
0.504
0.502
0.503
0.501
0.502
0.499
0.4995
0.5005000000000001
0.5035000000000001
0.5025000000000001
0.5035000000000001
0.5025000000000001
0.5035000000000001
0.5035000000000001
0.503
0.5045000000000001
0.504
0.5035000000000001
0.505
0.5045000000000001
0.5055000000000001
0.5025000000000001
0.503
0.502
0.5035000000000001
0.5
0.4995
0.503
0.5005000000000001
0.5025000000000001
0.5025000000000001
0.5025000000000001
0.5025000000000001
0.502
0.5045000000000001
0.5045000000000001
0.5055000000000001
0.504
0.5055000000000001
0.5035000000000001
0.5055000000000001
0.5045000000000001
0.504
0.503
0.5055000000000001
0.5045000000000001
0.505
0.505
0.505
0.5045000000000001
0.5035000000000001
0.5055000000000001
0.507
0.5055000000000001
0.5095000000000001
0.5015000000000001
0.499
0.4985
0.5015000000000001
0.501
0.5005000000000001
0.5035000000000001
0.501
0.503
0.503
0.503
0.5025000000000001
0.5035000000000001
0.5045000000000001
0.504
0.506
0.5055000000000001
0.5055000000000001
0.5055000000000001
0.5065000000000001
0.506
0.5065000000000001
0.5065000000000001
0.5065000000000001
0.5075000000000001
0.507
0.5075000000000001
0.5065000000000001
0.506
0.5065000000000001
0.5065000000000001
0.5055000000000001
0.509
0.5085000000000001
0.5075000000000001
0.5065000000000001
0.5075000000000001
0.5095000000000001
0.51
0.5105000000000001
0.511
0.514
0.5115000000000001
0.5125
0.5115000000000001
0.5115000000000001
0.5115000000000001
0.5105000000000001
0.5105000000000001
0.512
0.509
0.508
0.5095000000000001
0.5105000000000001
0.507
0.5055000000000001
0.5035000000000001
0.505
0.502
0.504
0.5035000000000001
0.504
0.504
0.5055000000000001
0.504
0.4995
0.5005000000000001
0.4995
0.499
0.4985
0.4985
0.497
0.4965
0.497
0.4975
0.4985
0.5005000000000001
0.5045000000000001
0.512
0.5325
0.56
0.583
0.586
0.5785
0.5655
0.554
0.5445
0.538
0.533
0.5295
0.5275
0.5275
0.532
0.5375
0.538
0.5365
0.533
0.528
0.524
0.5205
0.5175
0.5165
0.515
0.5135
0.511
0.5115000000000001
0.5135
0.512
0.511
0.512
0.5115000000000001
0.5115000000000001
0.5115000000000001
0.5115000000000001
0.5115000000000001
0.5115000000000001
0.511
0.511
0.5105000000000001
0.5105000000000001
0.51
0.5095000000000001
0.5105000000000001
0.5095000000000001
0.5105000000000001
0.5105000000000001
0.51
0.51
0.5095000000000001
0.511
0.5105000000000001
0.5095000000000001
0.51
0.51
0.5095000000000001
0.5105000000000001
0.5075000000000001
0.5055000000000001
0.5075000000000001
0.5055000000000001
0.5045000000000001
0.5035000000000001
0.5035000000000001
0.503
0.5045000000000001
0.507
0.5095000000000001
0.5125
0.515
0.516
0.5195
0.519
0.5205
0.5205
0.52
0.5185
0.5195
0.5155
0.5165
0.5165
0.5155
0.518
0.5155
0.5155
0.5145
0.515
0.514
0.5145
0.515
0.517
0.5145
0.5155
0.5135
0.513
0.512
0.5125
0.512
0.512
0.512
0.512
0.5115000000000001
0.5115000000000001
0.511
0.511
0.51
0.5095000000000001
0.509
0.5095000000000001
0.509
0.5055000000000001
0.5075000000000001
0.5055000000000001
0.51
0.509
0.51
0.509
0.511
0.5075000000000001
0.511
0.51
0.5055000000000001
0.5045000000000001
0.5065000000000001
0.505
0.503
0.502
0.5025000000000001
0.503
0.505
0.5025000000000001
0.505
0.5025000000000001
0.5045000000000001
0.5055000000000001
0.505
0.506
0.506
0.504
0.5025000000000001
0.502
0.5035000000000001
0.5025000000000001
0.5055000000000001
0.5035000000000001
0.5055000000000001
0.5075000000000001
0.506
0.503
0.5025000000000001
0.5035000000000001
0.505
0.5005000000000001
0.4985
0.4995
0.4985
0.498
0.4995
0.501
0.503
0.5035000000000001
0.6345000000000001
0.5775
0.538
0.5295
0.5215
0.517
0.517
0.5155
0.514
0.512
0.509
0.5095000000000001
0.505
0.5035000000000001
0.5005000000000001
0.502
0.501
0.5005000000000001
0.5005000000000001
0.4995
0.501
0.4995
0.5015000000000001
0.502
0.5005000000000001
0.5025000000000001
0.5035000000000001
0.503
0.503
0.503
0.503
0.5055000000000001
0.5045000000000001
0.5035000000000001
0.5035000000000001
0.504
0.505
0.5055000000000001
0.505
0.5045000000000001
0.5075000000000001
0.505
0.505
0.505
0.505
0.5055000000000001
0.508
0.505
0.5055000000000001
0.5045000000000001
0.5045000000000001
0.5045000000000001
0.505
0.505
0.5045000000000001
0.505
0.504
0.5065000000000001
0.505
0.505
0.505
0.5045000000000001
0.5055000000000001
0.5055000000000001
0.505
0.505
0.505
0.505
0.505
0.5055000000000001
0.5055000000000001
0.5055000000000001
0.5045000000000001
0.5055000000000001
0.5045000000000001
0.507
0.5045000000000001
0.5055000000000001
0.5045000000000001
0.5055000000000001
0.5055000000000001
0.5055000000000001
0.5045000000000001
0.505
0.505
0.5045000000000001
0.5055000000000001
0.5055000000000001
0.5055000000000001
0.5055000000000001
0.5055000000000001
0.505
0.505
0.5055000000000001
0.5055000000000001
0.505
0.505
0.5075000000000001
0.5085000000000001
0.5075000000000001
0.5055000000000001
0.5035000000000001
0.5045000000000001
0.505
0.504
0.505
0.5045000000000001
0.5055000000000001
0.506
0.505
0.5055000000000001
0.505
0.506
0.5055000000000001
0.5055000000000001
0.506
0.5055000000000001
0.509
0.511
0.5105000000000001
0.51
0.512
0.5125
0.5135
0.513
0.512
0.511
0.5105000000000001
0.511
0.5105000000000001
0.511
0.5105000000000001
0.5115000000000001
0.5075000000000001
0.5065000000000001
0.505
0.505
0.5055000000000001
0.5065000000000001
0.5065000000000001
0.5095000000000001
0.51
0.5065000000000001
0.5075000000000001
0.507
0.506
0.505
0.505
0.505
0.5055000000000001
0.5035000000000001
0.503
0.5055000000000001
0.5015000000000001
0.5005000000000001
0.4995
0.5005000000000001
0.5035000000000001
0.5085000000000001
0.5195
0.537
0.5485
0.5495
0.5445
0.5375
0.5295
0.5235
0.5205
0.5155
0.5125
0.5095000000000001
0.512
0.5115000000000001
0.514
0.51
0.5065000000000001
0.5045000000000001
0.5035000000000001
0.502
0.5015000000000001
0.5025000000000001
0.5
0.5015000000000001
0.5025000000000001
0.501
0.5015000000000001
0.5005000000000001
0.5005000000000001
0.4995
0.5
0.4995
0.4995
0.5005000000000001
0.5
0.5005000000000001
0.501
0.501
0.5045000000000001
0.5065000000000001
0.5035000000000001
0.5045000000000001
0.5035000000000001
0.504
0.5035000000000001
0.5055000000000001
0.5035000000000001
0.5045000000000001
0.5065000000000001
0.5045000000000001
0.5045000000000001
0.504
0.505
0.504
0.5025000000000001
0.503
0.5025000000000001
0.504
0.5035000000000001
0.503
0.503
0.5045000000000001
0.505
0.504
0.505
0.504
0.5045000000000001
0.505
0.5045000000000001
0.505
0.5045000000000001
0.5055000000000001
0.505
0.5055000000000001
0.5055000000000001
0.5065000000000001
0.5055000000000001
0.506
0.5055000000000001
0.5045000000000001
0.505
0.5065000000000001
0.5055000000000001
0.5065000000000001
0.5055000000000001
0.5045000000000001
0.5045000000000001
0.5045000000000001
0.5045000000000001
0.5045000000000001
0.5045000000000001
0.505
0.5065000000000001
0.5105000000000001
0.506
0.506
0.5035000000000001
0.5045000000000001
0.5065000000000001
0.5045000000000001
0.505
0.5045000000000001
0.5055000000000001
0.505
0.5035000000000001
0.5055000000000001
0.5075000000000001
0.5055000000000001
0.5055000000000001
0.506
0.5045000000000001
0.5085000000000001
0.5065000000000001
0.5055000000000001
0.503
0.505
0.5065000000000001
0.505
0.506
0.5055000000000001
0.5045000000000001
0.5025000000000001
0.504
0.5055000000000001
0.5035000000000001
0.504
0.502
0.5025000000000001
0.5035000000000001
0.504
0.5045000000000001
0.5035000000000001
0.502
0.5015000000000001
0.501
0.5025000000000001
0.5035000000000001
0.5045000000000001
0.5035000000000001
0.506
0.505
0.505
0.5065000000000001
0.5035000000000001
0.5035000000000001
0.502
0.5
0.497
0.4965
0.4935
0.497
0.5015000000000001
0.5115000000000001
0.527
0.532
0.5315
0.527
0.5205
0.5135
0.5125
0.5105000000000001
0.5095000000000001
0.5085000000000001
0.5105000000000001
0.5185
0.521
0.519
0.5145
0.514
0.509
0.5075000000000001
0.5075000000000001
0.5085000000000001
0.508
0.5085000000000001
0.5065000000000001
0.5055000000000001
0.506
0.5085000000000001
0.5085000000000001
0.5065000000000001
0.5065000000000001
0.5065000000000001
0.5075000000000001
0.5075000000000001
0.5075000000000001
0.509
0.5075000000000001
0.508
0.5085000000000001
0.5085000000000001
0.5085000000000001
0.509
0.509
0.5085000000000001
0.5085000000000001
0.5085000000000001
0.508
0.508
0.508
0.5105000000000001
0.508
0.5095000000000001
0.508
0.51
0.506
0.5065000000000001
0.5065000000000001
0.5045000000000001
0.505
0.5055000000000001
0.5045000000000001
0.5045000000000001
0.5045000000000001
0.5035000000000001
0.5015000000000001
0.5015000000000001
0.501
0.5
0.501
0.4995
0.4995
0.5
0.5
0.5015000000000001
0.502
0.5035000000000001
0.5065000000000001
0.5065000000000001
0.5055000000000001
0.505
0.506
0.5065000000000001
0.506
0.5065000000000001
0.5065000000000001
0.507
0.5065000000000001
0.5065000000000001
0.506
0.5065000000000001
0.506
0.5065000000000001
0.506
0.5065000000000001
0.507
0.5065000000000001
0.5075000000000001
0.508
0.505
0.5065000000000001
0.506
0.507
0.506
0.506
0.506
0.5065000000000001
0.5065000000000001
0.5065000000000001
0.5065000000000001
0.506
0.5065000000000001
0.5055000000000001
0.506
0.507
0.5075000000000001
0.506
0.507
0.5085000000000001
0.509
0.5105000000000001
0.511
0.5125
0.513
0.515
0.5155
0.517
0.5175
0.518
0.5185
0.521
0.5205
0.519
0.5195
0.519
0.5185
0.518
0.5175
0.5175
0.516
0.515
0.5145
0.514
0.5125
0.5115000000000001
0.5095000000000001
0.509
0.507
0.5065000000000001
0.507
0.5055000000000001
0.505
0.504
0.5035000000000001
0.5035000000000001
0.5035000000000001
0.504
0.502
0.5015000000000001
0.5015000000000001
0.503
0.5055000000000001
0.508
0.508
0.508
0.5085000000000001
0.51
0.512
0.5225
0.555
0.5915
0.6095
0.6085
0.5945
0.577
0.5595
0.5475
0.5345
0.526
0.5215
0.515
0.5165
0.5165
0.518
0.52
0.5175
0.5135
0.511
0.508
0.5065000000000001
0.5045000000000001
0.5035000000000001
0.503
0.5015000000000001
0.5005000000000001
0.4995
0.4985
0.499
0.5005000000000001
0.5
0.5005000000000001
0.5015000000000001
0.502
0.501
0.5005000000000001
0.4995
0.504
0.502
0.5025000000000001
0.5005000000000001
0.5045000000000001
0.5035000000000001
0.5035000000000001
0.5065000000000001
0.5065000000000001
0.508
0.5035000000000001
0.505
0.504
0.5035000000000001
0.5055000000000001
0.507
0.5035000000000001
0.5055000000000001
0.5045000000000001
0.5065000000000001
0.5055000000000001
0.505
0.5035000000000001
0.5045000000000001
0.5045000000000001
0.5045000000000001
0.504
0.504
0.505
0.5065000000000001
0.505
0.5045000000000001
0.5045000000000001
0.5065000000000001
0.505
0.506
0.5065000000000001
0.51
0.5085000000000001
0.5135
0.5155
0.5185
0.5195
0.5175
0.516
0.518
0.5095000000000001
0.5095000000000001
0.509
0.5105000000000001
0.509
0.5095000000000001
0.5085000000000001
0.5095000000000001
0.5115000000000001
0.51
0.5125
0.511
0.5075000000000001
0.507
0.5075000000000001
0.51
0.5095000000000001
0.5095000000000001
0.5075000000000001
0.5085000000000001
0.5075000000000001
0.5045000000000001
0.508
0.5105000000000001
0.506
0.505
0.507
0.5085000000000001
0.505
0.5035000000000001
0.502
0.5035000000000001
0.503
0.505
0.503
0.5045000000000001
0.507
0.5035000000000001
0.5065000000000001
0.506
0.507
0.508
0.507
0.5075000000000001
0.5085000000000001
0.5105000000000001
0.511
0.512
0.5115000000000001
0.5135
0.514
0.5135
0.5135
0.513
0.512
0.511
0.5095000000000001
0.508
0.507
0.5035000000000001
0.5035000000000001
0.5035000000000001
0.5035000000000001
0.5035000000000001
0.503
0.5035000000000001
0.5035000000000001
0.507
0.5295
0.581
0.6345000000000001
0.6625
0.661
0.6395000000000001
0.6115
0.586
0.5680000000000001
0.553
0.5445
0.5395
0.5335
0.5315
0.531
0.527
0.522
0.518
0.5145
0.5095000000000001
0.5055000000000001
0.5025000000000001
0.501
0.5
0.4995
0.4995
0.5015000000000001
0.503
0.5005000000000001
0.5035000000000001
0.5045000000000001
0.5045000000000001
0.504
0.5045000000000001
0.5055000000000001
0.5045000000000001
0.505
0.5045000000000001
0.504
0.504
0.5045000000000001
0.5065000000000001
0.51
0.512
0.5135
0.5145
0.515
0.5155
0.5165
0.5165
0.5135
0.513
0.5125
0.512
0.5135
0.513
0.5145
0.5135
0.5135
0.5135
0.5135
0.5135
0.5135
0.514
0.5125
0.512
0.5125
0.513
0.513
0.512
0.512
0.5115000000000001
0.513
0.5115000000000001
0.511
0.5105000000000001
0.51
0.509
0.509
0.511
0.508
0.509
0.5085000000000001
0.509
0.5085000000000001
0.5085000000000001
0.5085000000000001
0.508
0.5075000000000001
0.5085000000000001
0.5075000000000001
0.508
0.5075000000000001
0.5075000000000001
0.5075000000000001
0.5075000000000001
0.508
0.507
0.5095000000000001
0.5075000000000001
0.506
0.507
0.5065000000000001
0.507
0.5065000000000001
0.5065000000000001
0.507
0.506
0.5065000000000001
0.5085000000000001
0.51
0.5115000000000001
0.5135
0.5145
0.515
0.518
0.5185
0.5185
0.518
0.5165
0.5155
0.515
0.5155
0.5135
0.5125
0.5135
0.5135
0.514
0.515
0.5155
0.5165
0.5165
0.517
0.5165
0.5175
0.519
0.517
0.5145
0.514
0.514
0.5135
0.5135
0.513
0.5115000000000001
0.512
0.5115000000000001
0.511
0.511
0.51
0.5095000000000001
0.5115000000000001
0.5105000000000001
0.5095000000000001
0.5115000000000001
0.508
0.5095000000000001
0.5075000000000001
0.5065000000000001
0.5045000000000001
0.505
0.5035000000000001
0.5035000000000001
0.5035000000000001
0.5005000000000001
0.5015000000000001
0.4995
0.5025000000000001
0.5005000000000001
0.505
0.5315
0.5935
0.6365000000000001
0.645
0.628
0.6025
0.5815
0.5630000000000001
0.548
0.54
0.5335
0.531
0.5315
0.531
0.531
0.5305
0.526
0.5265
0.5195
0.5155
0.5135
0.5105000000000001
0.509
0.511
0.5095000000000001
0.509
0.506
0.5075000000000001
0.509
0.5085000000000001
0.5085000000000001
0.5105000000000001
0.51
0.5065000000000001
0.5085000000000001
0.5065000000000001
0.505
0.5075000000000001
0.505
0.506
0.506
0.507
0.5095000000000001
0.508
0.508
0.5075000000000001
0.508
0.507
0.5055000000000001
0.5045000000000001
0.504
0.499
0.502
0.5005000000000001
0.5015000000000001
0.5025000000000001
0.5015000000000001
0.502
0.5025000000000001
0.501
0.503
0.5035000000000001
0.502
0.504
0.5045000000000001
0.5025000000000001
0.5005000000000001
0.502
0.502
0.5015000000000001
0.5005000000000001
0.5015000000000001
0.502
0.502
0.5015000000000001
0.502
0.5015000000000001
0.5045000000000001
0.502
0.5055000000000001
0.5035000000000001
0.5035000000000001
0.5015000000000001
0.503
0.503
0.503
0.504
0.505
0.503
0.505
0.5035000000000001
0.5025000000000001
0.4995
0.4985
0.4975
0.497
0.4975
0.4975
0.4985
0.4965
0.4965
0.496
0.4965
0.4975
0.4975
0.4985
0.4995
0.501
0.501
0.502
0.5025000000000001
0.5025000000000001
0.505
0.5055000000000001
0.5025000000000001
0.501
0.5
0.5005000000000001
0.501
0.5015000000000001
0.5015000000000001
0.5025000000000001
0.502
0.5025000000000001
0.502
0.5025000000000001
0.5015000000000001
0.5015000000000001
0.5025000000000001
0.5015000000000001
0.502
0.502
0.5025000000000001
0.502
0.5025000000000001
0.503
0.5045000000000001
0.5025000000000001
0.501
0.5025000000000001
0.501
0.5015000000000001
0.4995
0.499
0.498
0.498
0.4985
0.497
0.498
0.4975
0.4985
0.5005000000000001
0.5035000000000001
0.506
0.52
0.5575
0.587
0.5955
0.5875
0.5710000000000001
0.555
0.542
0.533
0.5255
0.5195
0.515
0.5135
0.5135
0.5135
0.512
0.5105000000000001
0.5065000000000001
0.504
0.5015000000000001
0.4995
0.4985
0.498
0.501
0.4985
0.498
0.499
0.4985
0.4995
0.497
0.4995
0.4995
0.5015000000000001
0.498
0.4985
0.4995
0.503
0.5005000000000001
0.4985
0.4995
0.499
0.4995
0.4995
0.501
0.501
0.5005000000000001
0.5015000000000001
0.5015000000000001
0.502
0.5025000000000001
0.5025000000000001
0.504
0.5005000000000001
0.5025000000000001
0.5015000000000001
0.5015000000000001
0.5025000000000001
0.502
0.5025000000000001
0.4995
0.502
0.502
0.5015000000000001
0.5015000000000001
0.5025000000000001
0.503
0.5025000000000001
0.5035000000000001
0.5025000000000001
0.5025000000000001
0.503
0.5025000000000001
0.502
0.503
0.5025000000000001
0.5025000000000001
0.5025000000000001
0.503
0.5025000000000001
0.502
0.5025000000000001
0.5025000000000001
0.503
0.5025000000000001
0.502
0.501
0.5
0.5
0.501
0.501
0.501
0.5
0.4995
0.501
0.5015000000000001
0.4975
0.4975
0.4975
0.497
0.497
0.498
0.499
0.498
0.4965
0.496
0.4955
0.4955
0.4975
0.4985
0.4995
0.4975
0.5015000000000001
0.5
0.5005000000000001
0.499
0.4995
0.501
0.501
0.5025000000000001
0.502
0.498
0.499
0.5015000000000001
0.5015000000000001
0.5035000000000001
0.505
0.5045000000000001
0.507
0.5075000000000001
0.5085000000000001
0.5095000000000001
0.5095000000000001
0.5055000000000001
0.512
0.5075000000000001
0.508
0.5095000000000001
0.508
0.506
0.505
0.506
0.5055000000000001
0.5065000000000001
0.5035000000000001
0.507
0.5035000000000001
0.5035000000000001
0.506
0.5025000000000001
0.5035000000000001
0.5025000000000001
0.5015000000000001
0.4995
0.4995
0.501
0.5
0.5005000000000001
0.4955
0.4985
0.5
0.499
0.5005000000000001
0.502
0.5135
0.533
0.542
0.5205
0.505
0.5075000000000001
0.512
0.514
0.5145
0.5115000000000001
0.511
0.5075000000000001
0.5035000000000001
0.5015000000000001
0.5045000000000001
0.503
0.5015000000000001
0.5035000000000001
0.502
0.503
0.502
0.4985
0.499
0.4995
0.4985
0.497
0.499
0.4995
0.499
0.5
0.5015000000000001
0.502
0.502
0.505
0.5025000000000001
0.5015000000000001
0.501
0.5
0.4995
0.5015000000000001
0.501
0.5
0.5005000000000001
0.502
0.502
0.5015000000000001
0.5015000000000001
0.5025000000000001
0.5025000000000001
0.503
0.505
0.5105000000000001
0.5105000000000001
0.513
0.5135
0.5135
0.512
0.51
0.5105000000000001
0.5085000000000001
0.508
0.507
0.5075000000000001
0.507
0.506
0.506
0.5065000000000001
0.5075000000000001
0.5085000000000001
0.509
0.5095000000000001
0.51
0.5095000000000001
0.5095000000000001
0.5095000000000001
0.5095000000000001
0.5095000000000001
0.5085000000000001
0.5085000000000001
0.5095000000000001
0.5095000000000001
0.5085000000000001
0.509
0.5085000000000001
0.5095000000000001
0.5085000000000001
0.5085000000000001
0.5075000000000001
0.5075000000000001
0.5075000000000001
0.5075000000000001
0.5075000000000001
0.5075000000000001
0.5075000000000001
0.5075000000000001
0.507
0.5075000000000001
0.507
0.5065000000000001
0.5065000000000001
0.5075000000000001
0.5065000000000001
0.5085000000000001
0.5075000000000001
0.505
0.5075000000000001
0.5085000000000001
0.5095000000000001
0.512
0.5135
0.5155
0.519
0.5205
0.5215
0.5215
0.52
0.5195
0.5185
0.5175
0.518
0.5135
0.5155
0.515
0.514
0.5135
0.512
0.5125
0.5105000000000001
0.5095000000000001
0.5085000000000001
0.5085000000000001
0.5085000000000001
0.509
0.509
0.509
0.509
0.5105000000000001
0.5105000000000001
0.511
0.508
0.5095000000000001
0.5095000000000001
0.5085000000000001
0.508
0.5065000000000001
0.5065000000000001
0.5055000000000001
0.5045000000000001
0.505
0.504
0.5045000000000001
0.5035000000000001
0.5045000000000001
0.5025000000000001
0.5015000000000001
0.503
0.5075000000000001
0.516
0.532
0.5525
0.5685
0.5715
0.5635
0.551
0.5405
0.5325
0.5275
0.525
0.5235
0.522
0.5235
0.5265
0.53
0.5315
0.5305
0.528
0.5225
0.5185
0.5155
0.5125
0.5105000000000001
0.5095000000000001
0.5075000000000001
0.507
0.507
0.5075000000000001
0.5085000000000001
0.5075000000000001
0.5085000000000001
0.51
0.5075000000000001
0.5065000000000001
0.507
0.508
0.5055000000000001
0.505
0.505
0.5055000000000001
0.505
0.5065000000000001
0.508
0.5095000000000001
0.5065000000000001
0.508
0.504
0.5045000000000001
0.5025000000000001
0.503
0.503
0.5035000000000001
0.5035000000000001
0.505
0.5035000000000001
0.5035000000000001
0.507
0.5015000000000001
0.5015000000000001
0.502
0.501
0.502
0.5005000000000001
0.5055000000000001
0.5005000000000001
0.501
0.503
0.502
0.5025000000000001
0.5
0.498
0.4995
0.499
0.4975
0.499
0.5025000000000001
0.5005000000000001
0.5015000000000001
0.502
0.5015000000000001
0.5025000000000001
0.5015000000000001
0.5045000000000001
0.503
0.5015000000000001
0.5025000000000001
0.5
0.501
0.498
0.4995
0.499
0.499
0.5
0.498
0.499
0.4995
0.5035000000000001
0.4995
0.4975
0.4975
0.498
0.5
0.499
0.4985
0.499
0.4995
0.498
0.4965
0.4985
0.499
0.5005000000000001
0.4985
0.5005000000000001
0.502
0.5005000000000001
0.502
0.498
0.497
0.4995
0.5005000000000001
0.5095000000000001
0.5115000000000001
0.515
0.5175
0.5195
0.519
0.5195
0.5225
0.52
0.5255
0.524
0.5275
0.5305
0.5275
0.527
0.5245
0.523
0.521
0.519
0.5135
0.5145
0.511
0.51
0.508
0.5075000000000001
0.507
0.5055000000000001
0.504
0.5075000000000001
0.5065000000000001
0.5075000000000001
0.507
0.5135
0.5315
0.5495
0.5555
0.5565
0.5475
0.539
0.5345
0.5275
0.5235
0.5215
0.521
0.5195
0.5215
0.5245
