0.47550000000000003
0.47300000000000003
0.47450000000000003
0.47200000000000003
0.47500000000000003
0.47550000000000003
0.47750000000000004
0.47550000000000003
0.47650000000000003
0.47750000000000004
0.47550000000000003
0.47550000000000003
0.47650000000000003
0.47450000000000003
0.47800000000000004
0.47800000000000004
0.47650000000000003
0.47700000000000004
0.47750000000000004
0.47600000000000003
0.47550000000000003
0.47650000000000003
0.47800000000000004
0.47700000000000004
0.482
0.482
0.517
0.9205
0.6645
0.5355
0.4895
0.47700000000000004
0.47350000000000003
0.47500000000000003
0.47650000000000003
0.47750000000000004
0.47750000000000004
0.47650000000000003
0.47650000000000003
0.47600000000000003
0.47550000000000003
0.47950000000000004
0.47950000000000004
0.47600000000000003
0.47950000000000004
0.47950000000000004
0.47950000000000004
0.47850000000000004
0.481
0.47900000000000004
0.47900000000000004
0.47950000000000004
0.47950000000000004
0.482
0.482
0.4825
0.483
0.4835
0.4835
0.4835
0.4835
0.485
0.4845
0.4835
0.4845
0.4845
0.4855
0.4855
0.4855
0.4845
0.485
0.4855
0.4845
0.4855
0.4855
0.4855
0.485
0.4855
0.4845
0.4845
0.4855
0.4855
0.486
0.4865
0.4865
0.4865
0.4855
0.4845
0.486
0.485
0.4855
0.486
0.485
0.4855
0.486
0.4855
0.4855
0.4865
0.4855
0.4845
0.4845
0.4845
0.483
0.4825
0.4835
0.47900000000000004
0.48
0.47850000000000004
0.47850000000000004
0.47950000000000004
0.481
0.484
0.484
0.4855
0.486
0.4865
0.4855
0.4865
0.484
0.4845
0.4845
0.4835
0.4835
0.482
0.4815
0.481
0.47800000000000004
0.47900000000000004
0.47850000000000004
0.47800000000000004
0.47800000000000004
0.47900000000000004
0.4825
0.507
0.5635
0.653
0.839
1.092
1.2715
1.202
1.0695000000000001
0.9445
0.8475
0.7115
0.7275
0.7225
0.6915
0.6525
0.6155
0.5855
0.5595
0.5415
0.5275
0.516
0.507
0.5005000000000001
0.494
0.4905
0.4875
0.4855
0.484
0.483
0.4815
0.47700000000000004
0.47650000000000003
0.47500000000000003
0.47500000000000003
0.47550000000000003
0.47650000000000003
0.47700000000000004
0.47700000000000004
0.47800000000000004
0.47850000000000004
0.47750000000000004
0.47800000000000004
0.47900000000000004
0.47850000000000004
0.47800000000000004
0.47800000000000004
0.47850000000000004
0.47900000000000004
0.47850000000000004
0.47900000000000004
0.47950000000000004
0.47850000000000004
0.47900000000000004
0.47850000000000004
0.47900000000000004
0.47800000000000004
0.47850000000000004
0.47900000000000004
0.47900000000000004
0.47850000000000004
0.47900000000000004
0.47950000000000004
0.47850000000000004
0.47950000000000004
0.47850000000000004
0.47950000000000004
0.47950000000000004
0.48
0.47850000000000004
0.47950000000000004
0.47950000000000004
0.47950000000000004
0.47950000000000004
0.47950000000000004
0.47950000000000004
0.48
0.47900000000000004
0.47900000000000004
0.48
0.47950000000000004
0.47850000000000004
0.48
0.47950000000000004
0.48
0.48
0.47950000000000004
0.4805
0.481
0.4805
0.48
0.4805
0.47950000000000004
0.47950000000000004
0.481
0.47950000000000004
0.47950000000000004
0.481
0.47950000000000004
0.47900000000000004
0.47850000000000004
0.47900000000000004
0.47850000000000004
0.47800000000000004
0.47850000000000004
0.47800000000000004
0.47800000000000004
0.47850000000000004
0.47900000000000004
0.47850000000000004
0.48
0.47950000000000004
0.48
0.47900000000000004
0.4805
0.4805
0.47900000000000004
0.47750000000000004
0.47800000000000004
0.47650000000000003
0.47950000000000004
0.47900000000000004
0.47500000000000003
0.47650000000000003
0.47300000000000003
0.47550000000000003
0.47600000000000003
0.47950000000000004
0.47750000000000004
0.4805
0.482
0.4805
0.47950000000000004
0.4805
0.47950000000000004
0.47950000000000004
0.4805
0.4805
0.47850000000000004
0.4835
0.4845
0.483
0.4815
0.482
0.481
0.47900000000000004
0.4805
0.533
0.601
0.6695
0.8565
1.1320000000000001
1.3115
1.296
1.175
1.0190000000000001
0.8585
0.755
0.7095
0.7105
0.7555000000000001
0.8215
0.5065000000000001
0.494
0.4875
0.4835
0.47950000000000004
0.47550000000000003
0.47450000000000003
0.47300000000000003
0.47250000000000003
0.47250000000000003
0.47300000000000003
0.47300000000000003
0.47450000000000003
0.47250000000000003
0.47350000000000003
0.47350000000000003
0.47300000000000003
0.47300000000000003
0.47350000000000003
0.47350000000000003
0.47150000000000003
0.47350000000000003
0.47250000000000003
0.47100000000000003
0.47300000000000003
0.47250000000000003
0.47300000000000003
0.47300000000000003
0.47250000000000003
0.47350000000000003
0.47250000000000003
0.47300000000000003
0.47350000000000003
0.47250000000000003
0.47250000000000003
0.47250000000000003
0.47250000000000003
0.47150000000000003
0.47000000000000003
0.46950000000000003
0.468
0.4675
0.4675
0.468
0.46900000000000003
0.46900000000000003
0.46900000000000003
0.46900000000000003
0.4675
0.468
0.4685
0.4675
0.467
0.468
0.4675
0.4685
0.46900000000000003
0.46900000000000003
0.466
0.468
0.468
0.46950000000000003
0.47050000000000003
0.47150000000000003
0.47200000000000003
0.47250000000000003
0.47250000000000003
0.47150000000000003
0.47350000000000003
0.47250000000000003
0.47300000000000003
0.47250000000000003
0.47350000000000003
0.47300000000000003
0.47400000000000003
0.47600000000000003
0.47600000000000003
0.47500000000000003
0.47350000000000003
0.47350000000000003
0.47250000000000003
0.47300000000000003
0.47400000000000003
0.47450000000000003
0.47400000000000003
0.47450000000000003
0.47250000000000003
0.47000000000000003
0.47400000000000003
0.47350000000000003
0.47250000000000003
0.47250000000000003
0.47200000000000003
0.47200000000000003
0.47050000000000003
0.46950000000000003
0.47150000000000003
0.47000000000000003
0.47050000000000003
0.47300000000000003
0.47200000000000003
0.47050000000000003
0.47300000000000003
0.47000000000000003
0.46900000000000003
0.467
0.46950000000000003
0.46900000000000003
0.46900000000000003
0.47250000000000003
0.497
0.5575
0.669
0.9555
1.0925
1.0235
0.8975
0.789
0.7085
0.67
0.678
0.7225
0.7635000000000001
0.7575000000000001
0.7030000000000001
0.6415
0.5935
0.5555
0.531
0.47000000000000003
0.4675
0.4665
0.466
0.4655
0.4665
0.4675
0.4665
0.467
0.467
0.4675
0.4675
0.4675
0.468
0.4675
0.465
0.4665
0.4655
0.466
0.466
0.4665
0.467
0.4675
0.4675
0.46900000000000003
0.46900000000000003
0.47000000000000003
0.4685
0.4685
0.46950000000000003
0.47000000000000003
0.4675
0.46900000000000003
0.46900000000000003
0.4685
0.46950000000000003
0.46950000000000003
0.46900000000000003
0.4675
0.4665
0.4675
0.46900000000000003
0.4685
0.4685
0.4685
0.46950000000000003
0.47000000000000003
0.47000000000000003
0.47000000000000003
0.47100000000000003
0.47050000000000003
0.47050000000000003
0.47050000000000003
0.47050000000000003
0.47050000000000003
0.47050000000000003
0.47100000000000003
0.47150000000000003
0.47100000000000003
0.47000000000000003
0.46950000000000003
0.47000000000000003
0.47050000000000003
0.47050000000000003
0.47100000000000003
0.47150000000000003
0.47200000000000003
0.47300000000000003
0.47300000000000003
0.47350000000000003
0.47550000000000003
0.47600000000000003
0.47550000000000003
0.47600000000000003
0.47500000000000003
0.47650000000000003
0.47600000000000003
0.47600000000000003
0.47500000000000003
0.47450000000000003
0.47450000000000003
0.47550000000000003
0.47450000000000003
0.47350000000000003
0.47250000000000003
0.47200000000000003
0.47000000000000003
0.468
0.46950000000000003
0.468
0.4685
0.47350000000000003
0.483
0.4955
0.6205
0.9045
1.0435
0.999
0.8815000000000001
0.768
0.6865
0.6275000000000001
0.591
0.5805
0.5885
0.5935
0.5835
0.5605
0.5355
0.5165
0.504
0.494
0.4855
0.47950000000000004
0.47450000000000003
0.465
0.47350000000000003
0.4675
0.46950000000000003
0.4675
0.467
0.468
0.467
0.467
0.464
0.46900000000000003
0.467
0.4685
0.4675
0.46900000000000003
0.47250000000000003
0.47250000000000003
0.47400000000000003
0.47150000000000003
0.47300000000000003
0.47150000000000003
0.47050000000000003
0.47000000000000003
0.4685
0.46900000000000003
0.4685
0.46950000000000003
0.46950000000000003
0.4685
0.4685
0.4685
0.47100000000000003
0.4685
0.4675
0.46900000000000003
0.46900000000000003
0.47100000000000003
0.46950000000000003
0.47100000000000003
0.47000000000000003
0.46950000000000003
0.4685
0.47150000000000003
0.46950000000000003
0.46900000000000003
0.46900000000000003
0.47100000000000003
0.468
0.46900000000000003
0.46900000000000003
0.46950000000000003
0.47050000000000003
0.4685
0.46950000000000003
0.468
0.46950000000000003
0.46950000000000003
0.47000000000000003
0.46950000000000003
0.46950000000000003
0.47050000000000003
0.47150000000000003
0.47100000000000003
0.47100000000000003
0.47200000000000003
0.47200000000000003
0.46900000000000003
0.47100000000000003
0.46950000000000003
0.47150000000000003
0.47050000000000003
0.47150000000000003
0.47100000000000003
0.47050000000000003
0.47150000000000003
0.47800000000000004
0.47450000000000003
0.47150000000000003
0.47300000000000003
0.47450000000000003
0.47550000000000003
0.47550000000000003
0.4845
0.5185
0.5675
0.7285
0.9580000000000001
1.1315
1.1185
1.016
0.9035
0.798
0.719
0.6675
0.635
0.622
0.616
0.6135
0.6135
0.606
0.5855
0.5625
0.5425
0.5265
0.5135
0.5025000000000001
0.4925
0.491
0.485
0.483
0.482
0.4815
0.4805
0.47950000000000004
0.47850000000000004
0.47850000000000004
0.47900000000000004
0.47750000000000004
0.47750000000000004
0.47600000000000003
0.47650000000000003
0.47650000000000003
0.47550000000000003
0.47900000000000004
0.47550000000000003
0.47550000000000003
0.47450000000000003
0.47750000000000004
0.47650000000000003
0.47650000000000003
0.47650000000000003
0.47700000000000004
0.47700000000000004
0.47500000000000003
0.47550000000000003
0.47500000000000003
0.47450000000000003
0.47500000000000003
0.47550000000000003
0.47400000000000003
0.47600000000000003
0.47550000000000003
0.47500000000000003
0.47400000000000003
0.47450000000000003
0.47500000000000003
0.47550000000000003
0.47550000000000003
0.47500000000000003
0.47550000000000003
0.47550000000000003
0.47750000000000004
0.47550000000000003
0.47550000000000003
0.47550000000000003
0.47550000000000003
0.47550000000000003
0.47600000000000003
0.47550000000000003
0.47750000000000004
0.47750000000000004
0.47750000000000004
0.47550000000000003
0.47550000000000003
0.47700000000000004
0.47850000000000004
0.47750000000000004
0.47450000000000003
0.47500000000000003
0.47650000000000003
0.47650000000000003
0.47550000000000003
0.47600000000000003
0.47550000000000003
0.47650000000000003
0.47550000000000003
0.47500000000000003
0.47550000000000003
0.47550000000000003
0.47650000000000003
0.47600000000000003
0.47700000000000004
0.47600000000000003
0.47750000000000004
0.47650000000000003
0.47600000000000003
0.47650000000000003
0.47700000000000004
0.47650000000000003
0.47650000000000003
0.47650000000000003
0.47700000000000004
0.47650000000000003
0.47650000000000003
0.47750000000000004
0.47750000000000004
0.47800000000000004
0.47700000000000004
0.47850000000000004
0.47700000000000004
0.47850000000000004
0.47950000000000004
0.47850000000000004
0.47750000000000004
0.47750000000000004
0.47800000000000004
0.47550000000000003
0.47500000000000003
0.47600000000000003
0.47550000000000003
0.47650000000000003
0.47600000000000003
0.47600000000000003
0.47700000000000004
0.47900000000000004
0.47800000000000004
0.47950000000000004
0.47850000000000004
0.47950000000000004
0.481
0.47950000000000004
0.47850000000000004
0.47750000000000004
0.47800000000000004
0.47250000000000003
0.47600000000000003
0.47450000000000003
0.47750000000000004
0.47500000000000003
0.47450000000000003
0.47350000000000003
0.47450000000000003
0.47300000000000003
0.47100000000000003
0.4685
0.4685
0.47000000000000003
0.47250000000000003
0.47350000000000003
0.47400000000000003
0.47850000000000004
0.4955
0.529
0.598
0.7795
1.0015
1.1165
1.1055
1.0155
0.913
0.8250000000000001
0.7495
0.6925
0.668
0.661
0.6815
0.735
0.7935
0.8035
0.7645000000000001
0.7055
0.652
0.6075
0.5735
0.5485
0.529
0.511
0.4975
0.491
0.4835
0.4805
0.47700000000000004
0.46950000000000003
0.46950000000000003
0.4665
0.4665
0.4655
0.465
0.4655
0.4685
0.46950000000000003
0.46950000000000003
0.47000000000000003
0.4665
0.4635
0.468
0.466
0.4665
0.465
0.464
0.4665
0.4665
0.4675
0.46950000000000003
0.466
0.47050000000000003
0.4675
0.47050000000000003
0.46950000000000003
0.4675
0.47100000000000003
0.47350000000000003
0.467
0.46950000000000003
0.47150000000000003
0.467
0.46900000000000003
0.47000000000000003
0.46950000000000003
0.468
0.47100000000000003
0.47150000000000003
0.47100000000000003
0.47250000000000003
0.47350000000000003
0.47250000000000003
0.47250000000000003
0.47450000000000003
0.47350000000000003
0.47400000000000003
0.47500000000000003
0.47350000000000003
0.47450000000000003
0.47450000000000003
0.47500000000000003
0.47450000000000003
0.47500000000000003
0.47400000000000003
0.47450000000000003
0.47400000000000003
0.47350000000000003
0.47350000000000003
0.47400000000000003
0.47400000000000003
0.47450000000000003
0.47550000000000003
0.47600000000000003
0.47550000000000003
0.47500000000000003
0.47500000000000003
0.47550000000000003
0.47450000000000003
0.47350000000000003
0.47650000000000003
0.47500000000000003
0.47400000000000003
0.47250000000000003
0.47450000000000003
0.47400000000000003
0.47450000000000003
0.47450000000000003
0.47450000000000003
0.47450000000000003
0.47400000000000003
0.47400000000000003
0.47450000000000003
0.47450000000000003
0.47550000000000003
0.47550000000000003
0.47450000000000003
0.47550000000000003
0.47550000000000003
0.47550000000000003
0.47450000000000003
0.47500000000000003
0.47500000000000003
0.47450000000000003
0.47500000000000003
0.47500000000000003
0.47450000000000003
0.47550000000000003
0.47600000000000003
0.47550000000000003
0.47550000000000003
0.47550000000000003
0.47550000000000003
0.47650000000000003
0.47500000000000003
0.47400000000000003
0.47350000000000003
0.47400000000000003
0.47350000000000003
0.47450000000000003
0.47650000000000003
0.47850000000000004
0.4805
0.4915
0.523
0.5760000000000001
0.6505
0.8135
1.033
1.1785
1.1975
1.1115
1.0010000000000001
0.8855000000000001
0.7935
0.7275
0.6945
0.6905
0.711
0.7595000000000001
0.8210000000000001
0.845
0.8245
0.7735
0.7155
0.664
0.623
0.5905
0.5645
0.5435
0.5265
0.5145
0.5035000000000001
0.4955
0.4885
0.4855
0.47950000000000004
0.47800000000000004
0.47350000000000003
0.47300000000000003
0.47150000000000003
0.47050000000000003
0.47000000000000003
0.46950000000000003
0.46900000000000003
0.4685
0.4685
0.4685
0.46900000000000003
0.46900000000000003
0.4685
0.4685
0.4685
0.4675
0.4685
0.468
0.47100000000000003
0.46900000000000003
0.46900000000000003
0.467
0.468
0.4685
0.4675
0.47100000000000003
0.468
0.46900000000000003
0.47000000000000003
0.47000000000000003
0.468
0.4675
0.4685
0.4675
0.4675
0.4675
0.4675
0.4675
0.4675
0.467
0.4665
0.4685
0.468
0.4655
0.4675
0.4675
0.46900000000000003
0.4685
0.4685
0.46950000000000003
0.4685
0.4685
0.46900000000000003
0.46950000000000003
0.47050000000000003
0.46950000000000003
0.47100000000000003
0.47300000000000003
0.468
0.46950000000000003
0.4675
0.46950000000000003
0.46900000000000003
0.46900000000000003
0.46950000000000003
0.468
0.46900000000000003
0.47000000000000003
0.47150000000000003
0.46900000000000003
0.47150000000000003
0.47100000000000003
0.47250000000000003
0.46950000000000003
0.47000000000000003
0.4685
0.46950000000000003
0.47000000000000003
0.46950000000000003
0.46900000000000003
0.47100000000000003
0.46950000000000003
0.47000000000000003
0.47000000000000003
0.47000000000000003
0.47050000000000003
0.47050000000000003
0.47050000000000003
0.47150000000000003
0.47050000000000003
0.47050000000000003
0.47050000000000003
0.47100000000000003
0.47100000000000003
0.47000000000000003
0.46900000000000003
0.468
0.4675
0.466
0.466
0.467
0.4675
0.4675
0.4675
0.46950000000000003
0.46900000000000003
0.47100000000000003
0.47250000000000003
0.47150000000000003
0.47150000000000003
0.47150000000000003
0.47350000000000003
0.47250000000000003
0.47350000000000003
0.47350000000000003
0.47400000000000003
0.47350000000000003
0.47250000000000003
0.47350000000000003
0.47400000000000003
0.47350000000000003
0.47400000000000003
0.47100000000000003
0.47150000000000003
0.47300000000000003
0.47500000000000003
0.47450000000000003
0.47500000000000003
0.47700000000000004
0.47900000000000004
0.47950000000000004
0.488
0.5115000000000001
0.55
0.6265000000000001
0.8075
0.989
1.073
1.0685
0.9915
0.8935000000000001
0.7995
0.7265
0.675
0.6495
0.647
0.668
0.6995
0.7305
0.7285
0.6935
0.6515
0.612
0.579
0.5535
0.5305
0.514
0.5005000000000001
0.4915
0.4825
0.47850000000000004
0.47500000000000003
0.47050000000000003
0.466
0.46900000000000003
0.466
0.4645
0.464
0.4625
0.463
0.4595
0.459
0.462
0.4625
0.462
0.463
0.461
0.4605
0.4615
0.461
0.4575
0.4645
0.4595
0.464
0.4615
0.4635
0.462
0.463
0.4635
0.4615
0.4635
0.463
0.468
0.4635
0.463
0.4625
0.4625
0.467
0.47000000000000003
0.466
0.467
0.47000000000000003
0.462
0.466
0.466
0.465
0.466
0.466
0.4685
0.46950000000000003
0.4675
0.468
0.47250000000000003
0.468
0.467
0.466
0.4675
0.465
0.4655
0.468
0.467
0.4665
0.4675
0.4675
0.46900000000000003
0.46900000000000003
0.4685
0.466
0.466
0.466
0.4665
0.4665
0.467
0.467
0.467
0.4675
0.4675
0.46950000000000003
0.46950000000000003
0.47050000000000003
0.47100000000000003
0.47150000000000003
0.47150000000000003
0.47150000000000003
0.47250000000000003
0.47150000000000003
0.47150000000000003
0.47250000000000003
0.47250000000000003
0.47150000000000003
0.47150000000000003
0.47150000000000003
0.47200000000000003
0.47150000000000003
0.47150000000000003
0.47250000000000003
0.47250000000000003
0.47250000000000003
0.47500000000000003
0.47500000000000003
0.47550000000000003
0.47550000000000003
0.47650000000000003
0.47650000000000003
0.47600000000000003
0.47550000000000003
0.47550000000000003
0.47500000000000003
0.47450000000000003
0.47400000000000003
0.47350000000000003
0.47150000000000003
0.47200000000000003
0.47100000000000003
0.47100000000000003
0.47050000000000003
0.46950000000000003
0.4685
0.47200000000000003
0.47150000000000003
0.481
0.4925
0.5135
0.621
0.795
0.923
0.9530000000000001
0.9055
0.8305
0.7555000000000001
0.6915
0.643
0.6065
0.5835
0.5785
0.6035
0.64
0.6635
0.6635
0.642
0.611
0.5815
0.5555
0.5365
0.522
0.5115000000000001
0.5025000000000001
0.4955
0.4895
0.484
0.4815
0.47800000000000004
0.47650000000000003
0.47500000000000003
0.47300000000000003
0.47250000000000003
0.47150000000000003
0.47100000000000003
0.47150000000000003
0.47050000000000003
0.47000000000000003
0.47050000000000003
0.47050000000000003
0.47100000000000003
0.47150000000000003
0.47000000000000003
0.47050000000000003
0.47050000000000003
0.47100000000000003
0.47100000000000003
0.47050000000000003
0.47100000000000003
0.47050000000000003
0.47150000000000003
0.47100000000000003
0.47050000000000003
0.46900000000000003
0.47150000000000003
0.47150000000000003
0.46950000000000003
0.47100000000000003
0.47100000000000003
0.47150000000000003
0.47150000000000003
0.47050000000000003
0.46950000000000003
0.46900000000000003
0.468
0.468
0.4675
0.46900000000000003
0.47000000000000003
0.46900000000000003
0.47150000000000003
0.47150000000000003
0.47150000000000003
0.47150000000000003
0.47050000000000003
0.47050000000000003
0.47050000000000003
0.47050000000000003
0.47050000000000003
0.47200000000000003
0.47000000000000003
0.47200000000000003
0.46900000000000003
0.46950000000000003
0.47000000000000003
0.47150000000000003
0.46900000000000003
0.46950000000000003
0.47000000000000003
0.47100000000000003
0.47150000000000003
0.47300000000000003
0.47150000000000003
0.47050000000000003
0.47150000000000003
0.47100000000000003
0.47050000000000003
0.47050000000000003
0.47250000000000003
0.46950000000000003
0.46900000000000003
0.4685
0.468
0.47000000000000003
0.46900000000000003
0.47100000000000003
0.47100000000000003
0.47450000000000003
0.47150000000000003
0.47200000000000003
0.47150000000000003
0.47100000000000003
0.47400000000000003
0.47150000000000003
0.47000000000000003
0.4675
0.467
0.46900000000000003
0.4675
0.47000000000000003
0.47150000000000003
0.47150000000000003
0.47300000000000003
0.47150000000000003
0.47100000000000003
0.47250000000000003
0.47150000000000003
0.47500000000000003
0.47300000000000003
0.47600000000000003
0.47350000000000003
0.47700000000000004
0.47450000000000003
0.47650000000000003
0.47400000000000003
0.47650000000000003
0.47550000000000003
0.47700000000000004
0.47450000000000003
0.47600000000000003
0.47550000000000003
0.47850000000000004
0.47500000000000003
0.47600000000000003
0.47550000000000003
0.47450000000000003
0.47500000000000003
0.47600000000000003
0.47300000000000003
0.47100000000000003
0.47050000000000003
0.4665
0.47300000000000003
0.467
0.47150000000000003
0.47150000000000003
0.47400000000000003
0.47350000000000003
0.4845
0.5235
0.5895
0.7255
0.9375
0.9995
0.9495
0.8605
0.7775
0.7115
0.6565
0.6125
0.581
0.557
0.5455
0.538
0.528
0.516
0.5015000000000001
0.47650000000000003
0.4665
0.4685
0.46900000000000003
0.4665
0.4655
0.4655
0.467
0.4665
0.466
0.468
0.46900000000000003
0.465
0.466
0.46900000000000003
0.4665
0.468
0.4675
0.4675
0.464
0.4685
0.47000000000000003
0.4685
0.46900000000000003
0.47250000000000003
0.47200000000000003
0.465
0.468
0.47050000000000003
0.47150000000000003
0.46950000000000003
0.46900000000000003
0.4685
0.47100000000000003
0.468
0.46950000000000003
0.46950000000000003
0.47250000000000003
0.47200000000000003
0.47500000000000003
0.47350000000000003
0.47300000000000003
0.47350000000000003
0.47450000000000003
0.47450000000000003
0.47450000000000003
0.47400000000000003
0.47350000000000003
0.47400000000000003
0.47400000000000003
0.47450000000000003
0.47450000000000003
0.47400000000000003
0.47450000000000003
0.47450000000000003
0.47450000000000003
0.47500000000000003
0.47450000000000003
0.47500000000000003
0.47450000000000003
0.47500000000000003
0.47450000000000003
0.47400000000000003
0.47250000000000003
0.47300000000000003
0.47350000000000003
0.47350000000000003
0.47350000000000003
0.47400000000000003
0.47400000000000003
0.47400000000000003
0.47450000000000003
0.47750000000000004
0.47500000000000003
0.47500000000000003
0.47500000000000003
0.47500000000000003
0.47500000000000003
0.47550000000000003
0.47600000000000003
0.47550000000000003
0.47550000000000003
0.47550000000000003
0.47500000000000003
0.47600000000000003
0.47550000000000003
0.47550000000000003
0.47550000000000003
0.47500000000000003
0.47600000000000003
0.47650000000000003
0.47550000000000003
0.47550000000000003
0.47650000000000003
0.47700000000000004
0.47650000000000003
0.47650000000000003
0.47450000000000003
0.47550000000000003
0.47600000000000003
0.47550000000000003
0.47650000000000003
0.47600000000000003
0.47550000000000003
0.47550000000000003
0.47650000000000003
0.47600000000000003
0.47650000000000003
0.47600000000000003
0.47700000000000004
0.47700000000000004
0.47700000000000004
0.47550000000000003
0.47700000000000004
0.47750000000000004
0.47750000000000004
0.47650000000000003
0.47650000000000003
0.47750000000000004
0.47650000000000003
0.47700000000000004
0.47650000000000003
0.47550000000000003
0.47550000000000003
0.47500000000000003
0.47350000000000003
0.47350000000000003
0.47350000000000003
0.47250000000000003
0.47250000000000003
0.47500000000000003
0.47350000000000003
0.47350000000000003
0.4855
0.523
0.579
0.6940000000000001
0.9935
1.1565
1.183
1.1125
1.0005
0.893
0.8055
0.7355
0.6835
0.655
0.6475
0.6835
0.7465
0.8015
0.8205
0.7995
0.7535000000000001
0.6955
0.647
0.607
0.5755
0.5505
0.5285
0.514
0.5025000000000001
0.4935
0.488
0.4835
0.48
0.47750000000000004
0.47600000000000003
0.47400000000000003
0.47300000000000003
0.47150000000000003
0.47100000000000003
0.47050000000000003
0.47050000000000003
0.47000000000000003
0.47050000000000003
0.46900000000000003
0.46900000000000003
0.468
0.4675
0.468
0.4675
0.46900000000000003
0.4685
0.46900000000000003
0.46900000000000003
0.46950000000000003
0.46950000000000003
0.4685
0.46900000000000003
0.46900000000000003
0.47000000000000003
0.4685
0.47000000000000003
0.46950000000000003
0.4685
0.46900000000000003
0.468
0.468
0.4675
0.4675
0.46900000000000003
0.468
0.46950000000000003
0.4675
0.466
0.4665
0.4675
0.4655
0.4655
0.4635
0.4645
0.464
0.4635
0.4655
0.4665
0.467
0.4675
0.468
0.47050000000000003
0.47150000000000003
0.47050000000000003
0.47150000000000003
0.468
0.47050000000000003
0.47300000000000003
0.47150000000000003
0.47250000000000003
0.47100000000000003
0.47150000000000003
0.47000000000000003
0.46950000000000003
0.47050000000000003
0.47050000000000003
0.4685
0.46900000000000003
0.4675
0.46950000000000003
0.4675
0.468
0.46950000000000003
0.47250000000000003
0.47000000000000003
0.47100000000000003
0.46900000000000003
0.47300000000000003
0.47300000000000003
0.47550000000000003
0.47100000000000003
0.47200000000000003
0.47000000000000003
0.46900000000000003
0.47100000000000003
0.47050000000000003
0.4665
0.4665
0.46900000000000003
0.4685
0.46900000000000003
0.47050000000000003
0.47000000000000003
0.47100000000000003
0.47200000000000003
0.47050000000000003
0.46950000000000003
0.47500000000000003
0.47250000000000003
0.46900000000000003
0.47350000000000003
0.47250000000000003
0.47650000000000003
0.47500000000000003
0.46950000000000003
0.47200000000000003
0.47050000000000003
0.47100000000000003
0.46950000000000003
0.47250000000000003
0.47500000000000003
0.47450000000000003
0.47250000000000003
0.47450000000000003
0.48
0.5065000000000001
0.5745
0.7065
0.973
1.1855
1.2555
1.1985000000000001
1.071
0.9470000000000001
0.8375
0.758
0.7035
0.6765
0.6905
0.7525000000000001
0.8225
0.8645
0.8635
0.8215
0.761
0.7010000000000001
0.651
0.6115
0.5795
0.5585
0.537
0.5195
0.5075000000000001
0.4965
0.4885
0.4835
0.47950000000000004
0.47700000000000004
0.47600000000000003
0.47350000000000003
0.47250000000000003
0.47150000000000003
0.47200000000000003
0.47150000000000003
0.47150000000000003
0.47150000000000003
0.47100000000000003
0.47050000000000003
0.47000000000000003
0.47050000000000003
0.46950000000000003
0.47000000000000003
0.46950000000000003
0.46950000000000003
0.47000000000000003
0.46950000000000003
0.47000000000000003
0.47000000000000003
0.46950000000000003
0.47000000000000003
0.46950000000000003
0.46950000000000003
0.46950000000000003
0.46950000000000003
0.46950000000000003
0.47000000000000003
0.47000000000000003
0.46950000000000003
0.47000000000000003
0.47050000000000003
0.46950000000000003
0.47050000000000003
0.46900000000000003
0.46900000000000003
0.468
0.4685
0.4685
0.4685
0.47100000000000003
0.468
0.4685
0.46950000000000003
0.4685
0.4685
0.46950000000000003
0.4685
0.46900000000000003
0.46950000000000003
0.46950000000000003
0.47000000000000003
0.47000000000000003
0.47000000000000003
0.46950000000000003
0.46950000000000003
0.47000000000000003
0.47150000000000003
0.46950000000000003
0.46900000000000003
0.46900000000000003
0.46950000000000003
0.46950000000000003
0.46950000000000003
0.46900000000000003
0.46950000000000003
0.47000000000000003
0.47000000000000003
0.468
0.4675
0.4675
0.4675
0.4685
0.46900000000000003
0.468
0.46950000000000003
0.47100000000000003
0.47050000000000003
0.4685
0.47000000000000003
0.46950000000000003
0.46950000000000003
0.46950000000000003
0.46950000000000003
0.46950000000000003
0.46950000000000003
0.46950000000000003
0.46950000000000003
0.46900000000000003
0.46950000000000003
0.46950000000000003
0.46900000000000003
0.47000000000000003
0.47050000000000003
0.47000000000000003
0.47050000000000003
0.47050000000000003
0.47050000000000003
0.47050000000000003
0.47100000000000003
0.47000000000000003
0.47150000000000003
0.47150000000000003
0.47050000000000003
0.47050000000000003
0.47100000000000003
0.47150000000000003
0.47150000000000003
0.47050000000000003
0.46950000000000003
0.468
0.466
0.467
0.468
0.46900000000000003
0.46950000000000003
0.47050000000000003
0.47150000000000003
0.47050000000000003
0.47150000000000003
0.47100000000000003
0.47050000000000003
0.4685
0.47050000000000003
0.46950000000000003
0.47300000000000003
0.47550000000000003
0.47650000000000003
0.47950000000000004
0.4835
0.4905
0.522
0.5825
0.6515
0.777
0.9525
1.0995
1.1485
1.1075
1.0130000000000001
0.9075
0.8235
0.7555000000000001
0.7005
0.6815
0.6995
0.7555000000000001
0.8295
0.8685
0.8545
0.8015
0.7365
0.6775
0.63
0.593
0.562
0.5415
0.5245
0.51
0.5005000000000001
0.4905
0.4855
0.47850000000000004
0.47700000000000004
0.47550000000000003
0.47350000000000003
0.47150000000000003
0.468
0.4665
0.4675
0.465
0.465
0.465
0.4655
0.4645
0.463
0.463
0.4665
0.4635
0.462
0.4635
0.4645
0.465
0.466
0.463
0.4645
0.4655
0.4645
0.4685
0.4675
0.47100000000000003
0.47250000000000003
0.47700000000000004
0.47800000000000004
0.4805
0.4805
0.47950000000000004
0.4805
0.4815
0.47950000000000004
0.4815
0.47850000000000004
0.47550000000000003
0.47200000000000003
0.47600000000000003
0.47500000000000003
0.47950000000000004
0.47200000000000003
0.47300000000000003
0.46950000000000003
0.47050000000000003
0.4685
0.46950000000000003
0.46950000000000003
0.47000000000000003
0.468
0.467
0.4675
0.4655
0.4655
0.4645
0.467
0.466
0.4685
0.47050000000000003
0.47350000000000003
0.46950000000000003
0.468
0.47100000000000003
0.4665
0.465
0.464
0.464
0.464
0.4655
0.466
0.4655
0.466
0.4675
0.47000000000000003
0.46900000000000003
0.468
0.47150000000000003
0.47700000000000004
0.47600000000000003
0.47700000000000004
0.47750000000000004
0.47750000000000004
0.47300000000000003
0.47650000000000003
0.47750000000000004
0.47700000000000004
0.47800000000000004
0.47600000000000003
0.481
0.47750000000000004
0.4805
0.47800000000000004
0.47850000000000004
0.47950000000000004
0.47800000000000004
0.47900000000000004
0.47850000000000004
0.47800000000000004
0.47950000000000004
0.47950000000000004
0.47650000000000003
0.47750000000000004
0.47400000000000003
0.47300000000000003
0.47250000000000003
0.47100000000000003
0.46950000000000003
0.47000000000000003
0.47000000000000003
0.468
0.47050000000000003
0.47300000000000003
0.47900000000000004
0.4945
0.5535
0.6980000000000001
0.837
0.884
0.863
0.8025
0.7365
0.6795
0.634
0.6005
0.577
0.5660000000000001
0.5605
0.5640000000000001
0.585
0.6005
0.6005
0.5845
0.5645
0.5445
0.528
0.5145
0.506
0.499
0.4955
0.4925
0.49
0.486
0.4855
0.486
0.4865
0.4885
0.4875
0.487
0.486
0.486
0.486
0.485
0.482
0.482
0.483
0.482
0.4815
0.481
0.481
0.482
0.482
0.4805
0.4815
0.4815
0.48
0.47850000000000004
0.47650000000000003
0.47350000000000003
0.47300000000000003
0.47200000000000003
0.47100000000000003
0.47300000000000003
0.47450000000000003
0.47400000000000003
0.47500000000000003
0.47450000000000003
0.47550000000000003
0.47250000000000003
0.47300000000000003
0.47150000000000003
0.47250000000000003
0.47250000000000003
0.47250000000000003
0.47300000000000003
0.47150000000000003
0.47200000000000003
0.47200000000000003
0.47250000000000003
0.47200000000000003
0.47150000000000003
0.47150000000000003
0.47150000000000003
0.47150000000000003
0.47150000000000003
0.47150000000000003
0.47050000000000003
0.47050000000000003
0.47150000000000003
0.47150000000000003
0.47150000000000003
0.47100000000000003
0.47150000000000003
0.47150000000000003
0.47150000000000003
0.47250000000000003
0.47300000000000003
0.47300000000000003
0.47550000000000003
0.47700000000000004
0.47750000000000004
0.47800000000000004
0.47950000000000004
0.481
0.48
0.47850000000000004
0.47700000000000004
0.47850000000000004
0.47800000000000004
0.47750000000000004
0.47700000000000004
0.47650000000000003
0.47600000000000003
0.47600000000000003
0.47650000000000003
0.47550000000000003
0.47550000000000003
0.47550000000000003
0.47600000000000003
0.47600000000000003
0.47650000000000003
0.47500000000000003
0.47500000000000003
0.47450000000000003
0.47450000000000003
0.47450000000000003
0.47350000000000003
0.47350000000000003
0.47400000000000003
0.47250000000000003
0.47250000000000003
0.47250000000000003
0.47250000000000003
0.47150000000000003
0.47150000000000003
0.47150000000000003
0.47100000000000003
0.47150000000000003
0.47100000000000003
0.47150000000000003
0.47100000000000003
0.47050000000000003
0.47050000000000003
0.47100000000000003
0.47200000000000003
0.47150000000000003
0.47150000000000003
0.47250000000000003
0.47150000000000003
0.47450000000000003
0.47300000000000003
0.47150000000000003
0.47250000000000003
0.47250000000000003
0.47250000000000003
0.47300000000000003
0.47300000000000003
0.47050000000000003
0.46950000000000003
0.46900000000000003
0.47050000000000003
0.468
0.468
0.468
0.4685
0.4685
0.47000000000000003
0.47250000000000003
0.4825
0.4955
0.512
0.5630000000000001
0.7165
0.8535
0.8995
0.865
0.7955
0.726
0.665
0.6195
0.5855
0.562
0.5545
0.5685
0.587
0.591
0.581
0.5640000000000001
0.5395
0.5235
0.5065000000000001
0.4965
0.4875
0.481
0.47700000000000004
0.47350000000000003
0.47050000000000003
0.46900000000000003
0.466
0.4685
0.467
0.464
0.4675
0.4675
0.463
0.465
0.467
0.4645
0.464
0.46950000000000003
0.4665
0.4655
0.4685
0.468
0.4675
0.468
0.4675
0.464
0.4635
0.465
0.467
0.466
0.4645
0.4635
0.4655
0.4665
0.4675
0.4665
0.4665
0.4675
0.4685
0.47100000000000003
0.466
0.47000000000000003
0.466
0.465
0.4665
0.4685
0.468
0.4685
0.46950000000000003
0.4685
0.46950000000000003
0.47000000000000003
0.4685
0.47050000000000003
0.46950000000000003
0.47050000000000003
0.47050000000000003
0.47100000000000003
0.47050000000000003
0.47150000000000003
0.47150000000000003
0.47150000000000003
0.47100000000000003
0.47150000000000003
0.47150000000000003
0.47150000000000003
0.47200000000000003
0.47200000000000003
0.47200000000000003
0.47250000000000003
0.47250000000000003
0.47350000000000003
0.47250000000000003
0.47200000000000003
0.47200000000000003
0.47250000000000003
0.47200000000000003
0.47250000000000003
0.47150000000000003
0.47250000000000003
0.47250000000000003
0.47450000000000003
0.47300000000000003
0.47150000000000003
0.47350000000000003
0.47150000000000003
0.47450000000000003
0.47150000000000003
0.47150000000000003
0.47000000000000003
0.46950000000000003
0.4685
0.468
0.4685
0.47050000000000003
0.47000000000000003
0.47200000000000003
0.47250000000000003
0.47300000000000003
0.47400000000000003
0.47450000000000003
0.47600000000000003
0.47750000000000004
0.47700000000000004
0.47550000000000003
0.47500000000000003
0.47550000000000003
0.47500000000000003
0.47500000000000003
0.47700000000000004
0.47550000000000003
0.47500000000000003
0.47450000000000003
0.47350000000000003
0.47450000000000003
0.47250000000000003
0.47150000000000003
0.47150000000000003
0.47000000000000003
0.47000000000000003
0.46900000000000003
0.47050000000000003
0.47000000000000003
0.47000000000000003
0.47050000000000003
0.47300000000000003
0.485
0.5095000000000001
0.5585
0.6915
0.905
1.0655000000000001
1.1075
1.0515
0.9545
0.8575
0.7775
0.7235
0.6890000000000001
0.672
0.6965
0.767
0.85
0.891
0.869
0.8015
0.6995
0.641
0.5985
0.5690000000000001
0.5425
0.5245
0.511
0.4995
0.4925
0.4865
0.4815
0.4815
0.47650000000000003
0.47350000000000003
0.47350000000000003
0.47150000000000003
0.47150000000000003
0.46900000000000003
0.4685
0.46900000000000003
0.46950000000000003
0.4685
0.4675
0.467
0.467
0.467
0.4675
0.468
0.4665
0.4665
0.4645
0.4665
0.4665
0.4655
0.468
0.4675
0.4675
0.4685
0.46950000000000003
0.46900000000000003
0.467
0.4665
0.4675
0.4675
0.466
0.4635
0.4635
0.4645
0.4655
0.4655
0.4655
0.467
0.4675
0.4685
0.4685
0.4685
0.4685
0.46950000000000003
0.46950000000000003
0.46950000000000003
0.47200000000000003
0.46950000000000003
0.46900000000000003
0.4675
0.46950000000000003
0.4685
0.468
0.4685
0.468
0.4685
0.468
0.46900000000000003
0.4685
0.468
0.4665
0.467
0.467
0.464
0.465
0.4645
0.463
0.4635
0.4635
0.4635
0.4655
0.468
0.468
0.468
0.4675
0.46900000000000003
0.46950000000000003
0.46950000000000003
0.4685
0.46950000000000003
0.47100000000000003
0.4685
0.47350000000000003
0.47150000000000003
0.46950000000000003
0.4675
0.46900000000000003
0.46950000000000003
0.47050000000000003
0.4685
0.467
0.46950000000000003
0.46950000000000003
0.47000000000000003
0.46950000000000003
0.46900000000000003
0.46950000000000003
0.47000000000000003
0.47000000000000003
0.46900000000000003
0.47000000000000003
0.47150000000000003
0.47250000000000003
0.4675
0.467
0.46950000000000003
0.4675
0.46950000000000003
0.47050000000000003
0.47600000000000003
0.47450000000000003
0.47300000000000003
0.47250000000000003
0.47550000000000003
0.47250000000000003
0.47400000000000003
0.47500000000000003
0.47450000000000003
0.47150000000000003
0.47350000000000003
0.47300000000000003
0.46950000000000003
0.468
0.47150000000000003
0.47600000000000003
0.504
0.587
0.745
1.032
1.28
1.1725
0.732
0.7795
0.8270000000000001
0.8115
0.746
0.6855
0.633
0.593
0.5585
0.5355
0.5215
0.5045000000000001
0.49
0.4825
0.47850000000000004
0.47250000000000003
0.46950000000000003
0.467
0.4655
0.465
0.4665
0.4665
0.465
0.4665
0.4655
0.465
0.4635
0.463
0.4645
0.4655
0.466
0.466
0.4655
0.466
0.4665
0.4675
0.4675
0.4685
0.468
0.4675
0.4655
0.4655
0.4665
0.4665
0.4655
0.4655
0.4655
0.466
0.4665
0.4665
0.4655
0.466
0.4655
0.467
0.4685
0.4665
0.4665
0.466
0.4665
0.466
0.4665
0.4665
0.4665
0.466
0.4665
0.4675
0.4685
0.46900000000000003
0.4675
0.468
0.4655
0.466
0.467
0.467
0.467
0.4665
0.4675
0.47050000000000003
0.47050000000000003
0.47150000000000003
0.47300000000000003
0.47550000000000003
0.47500000000000003
0.47550000000000003
0.47650000000000003
0.47550000000000003
0.47500000000000003
0.47450000000000003
0.47500000000000003
0.47550000000000003
0.47450000000000003
0.47350000000000003
0.47450000000000003
0.47400000000000003
0.47250000000000003
0.47500000000000003
0.47200000000000003
0.47150000000000003
0.47100000000000003
0.47150000000000003
0.47250000000000003
0.47150000000000003
0.47150000000000003
0.47150000000000003
0.47100000000000003
0.47150000000000003
0.47050000000000003
0.47150000000000003
0.47150000000000003
0.47150000000000003
0.47050000000000003
0.47050000000000003
0.47050000000000003
0.47150000000000003
0.47250000000000003
0.47000000000000003
0.47050000000000003
0.47100000000000003
0.47100000000000003
0.47100000000000003
0.47150000000000003
0.47150000000000003
0.47150000000000003
0.47250000000000003
0.47300000000000003
0.47350000000000003
0.47350000000000003
0.47300000000000003
0.47350000000000003
0.47150000000000003
0.47050000000000003
0.47050000000000003
0.47100000000000003
0.46950000000000003
0.47050000000000003
0.47000000000000003
0.4685
0.4685
0.468
0.4675
0.467
0.4675
0.467
0.467
0.467
0.4675
0.46950000000000003
0.47300000000000003
0.47750000000000004
0.491
0.5155
0.5635
0.6475
0.8145
1.0265
1.1675
1.188
1.115
1.0045
0.8965
0.808
0.7385
0.686
0.661
0.6705
0.7325
0.8125
0.8525
0.8355
0.7835
0.7225
0.667
0.6215
0.5865
0.5585
0.5395
0.5215
0.5075000000000001
0.4955
0.4865
0.481
0.47700000000000004
0.47500000000000003
0.47250000000000003
0.47050000000000003
0.46950000000000003
0.4675
0.466
0.4655
0.466
0.465
0.4645
0.465
0.467
0.4675
0.4685
0.46950000000000003
0.468
0.467
0.46900000000000003
0.4685
0.46900000000000003
0.468
0.468
0.46900000000000003
0.47100000000000003
0.468
0.4675
0.4665
0.4665
0.465
0.466
0.4685
0.467
0.466
0.4655
0.4675
0.4655
0.4645
0.4645
0.4665
0.464
0.4655
0.4645
0.4635
0.4655
0.4655
0.466
0.465
0.4655
0.465
0.4635
0.463
0.464
0.4645
0.466
0.467
0.467
0.465
0.4645
0.4655
0.4655
0.4665
0.464
0.4625
0.463
0.46
0.461
0.4595
0.4575
0.4595
0.463
0.46
0.4615
0.4575
0.4595
0.4615
0.4605
0.46
0.4605
0.454
0.4585
0.458
0.457
0.461
0.459
0.4615
0.4595
0.463
0.4615
0.463
0.4635
0.461
0.4625
0.463
0.459
0.4595
0.4555
0.4595
0.461
0.4595
0.4625
0.4625
0.464
0.462
0.462
0.46
0.458
0.46
0.46
0.4605
0.459
0.4555
0.4595
0.4595
0.457
0.4595
0.4575
0.4575
0.459
0.4675
0.482
0.508
0.5595
0.7105
0.8655
0.933
0.9145
0.847
0.7715
0.7055
0.6525
0.6115
0.5815
0.5650000000000001
0.5740000000000001
0.602
0.6275000000000001
0.6325000000000001
0.6155
0.5885
0.5625
0.5395
0.519
0.5045000000000001
0.494
0.4865
0.4815
0.47650000000000003
0.47150000000000003
0.467
0.464
0.4615
0.461
0.461
0.4605
0.461
0.461
0.4625
0.462
0.4615
0.4575
0.4595
0.46
0.4595
0.4605
0.46
0.4595
0.46
0.4605
0.46
0.46
0.4605
0.459
0.4575
0.458
0.4595
0.4595
0.4595
0.4595
0.4605
0.4605
0.4605
0.461
0.4605
0.4595
0.4605
0.46
0.46
0.4605
0.459
0.461
0.461
0.459
0.4595
0.4595
0.4605
0.4605
0.46
0.4595
0.4605
0.462
0.4615
0.463
0.463
0.4635
0.46
0.4605
0.46
0.4595
0.4605
0.4615
0.462
0.4635
0.4655
0.4665
0.46950000000000003
0.47150000000000003
0.47400000000000003
0.47550000000000003
0.47700000000000004
0.47800000000000004
0.47850000000000004
0.47900000000000004
0.47800000000000004
0.47550000000000003
0.47650000000000003
0.47500000000000003
0.47400000000000003
0.47250000000000003
0.47450000000000003
0.47450000000000003
0.47400000000000003
0.47350000000000003
0.47350000000000003
0.47350000000000003
0.47350000000000003
0.47250000000000003
0.47400000000000003
0.47400000000000003
0.47250000000000003
0.47250000000000003
0.47300000000000003
0.47350000000000003
0.47250000000000003
0.47300000000000003
0.47300000000000003
0.47200000000000003
0.47250000000000003
0.47250000000000003
0.47200000000000003
0.47200000000000003
0.47150000000000003
0.47300000000000003
0.47250000000000003
0.47150000000000003
0.47300000000000003
0.47350000000000003
0.47300000000000003
0.47350000000000003
0.47450000000000003
0.47400000000000003
0.47300000000000003
0.47350000000000003
0.47500000000000003
0.47300000000000003
0.47350000000000003
0.47400000000000003
0.47350000000000003
0.47250000000000003
0.47200000000000003
0.47150000000000003
0.47150000000000003
0.47150000000000003
0.47250000000000003
0.47100000000000003
0.47050000000000003
0.46950000000000003
0.46900000000000003
0.46900000000000003
0.4685
0.47100000000000003
0.47000000000000003
0.46900000000000003
0.47050000000000003
0.47050000000000003
0.47050000000000003
0.47000000000000003
0.4815
0.505
0.5475
0.671
0.839
0.9405
0.9335
0.869
0.7865
0.7145
0.662
0.623
0.595
0.5775
0.583
0.6075
0.6165
0.609
0.58
0.5565
0.5375
0.5195
0.51
0.4995
0.493
0.488
0.4835
0.47950000000000004
0.47950000000000004
0.47950000000000004
0.47600000000000003
0.47400000000000003
0.47450000000000003
0.47400000000000003
0.47400000000000003
0.47450000000000003
0.47450000000000003
0.47100000000000003
0.47050000000000003
0.47100000000000003
0.47350000000000003
0.47250000000000003
0.47300000000000003
0.46900000000000003
0.47150000000000003
0.47400000000000003
0.47250000000000003
0.47350000000000003
0.47050000000000003
0.47050000000000003
0.4665
0.4675
0.46950000000000003
0.4665
0.4665
0.4675
0.4665
0.467
0.4655
0.4675
0.464
0.46900000000000003
0.4645
0.4655
0.4665
0.4655
0.46950000000000003
0.47700000000000004
0.47900000000000004
0.48
0.47950000000000004
0.47750000000000004
0.4805
0.47850000000000004
0.47950000000000004
0.47800000000000004
0.4805
0.47850000000000004
0.47700000000000004
0.47750000000000004
0.47350000000000003
0.47650000000000003
0.47550000000000003
0.47300000000000003
0.47800000000000004
0.47600000000000003
0.47450000000000003
0.47500000000000003
0.47550000000000003
0.47550000000000003
0.47450000000000003
0.47600000000000003
0.47550000000000003
0.47700000000000004
0.47500000000000003
0.47550000000000003
0.47600000000000003
0.47550000000000003
0.47650000000000003
0.47750000000000004
0.47750000000000004
0.4805
0.482
0.4835
0.4845
0.486
0.489
0.488
0.4885
0.4875
0.4875
0.4865
0.4865
0.4835
0.482
0.4815
0.4815
0.47950000000000004
0.47850000000000004
0.47750000000000004
0.47700000000000004
0.47550000000000003
0.47550000000000003
0.47750000000000004
0.47550000000000003
0.47650000000000003
0.47800000000000004
0.47850000000000004
0.47850000000000004
0.47900000000000004
0.47900000000000004
0.47850000000000004
0.47850000000000004
0.47900000000000004
0.47950000000000004
0.47900000000000004
0.47800000000000004
0.47650000000000003
0.47650000000000003
0.47550000000000003
0.47450000000000003
0.47250000000000003
0.47150000000000003
0.47150000000000003
0.47200000000000003
0.47200000000000003
0.47150000000000003
0.47300000000000003
0.48
0.4945
0.516
0.5690000000000001
0.7275
0.9165
1.0145
1.0055
0.933
0.8445
0.7675000000000001
0.6980000000000001
0.654
0.6215
0.6065
0.6185
0.6705
0.721
0.733
0.7115
0.673
0.633
0.598
0.5680000000000001
0.5455
0.5285
0.5155
0.5055000000000001
0.4965
0.4905
0.485
0.4815
0.47900000000000004
0.47700000000000004
0.47650000000000003
0.47500000000000003
0.47250000000000003
0.47050000000000003
0.47200000000000003
0.47050000000000003
0.47000000000000003
0.46950000000000003
0.4685
0.467
0.4675
0.4685
0.47050000000000003
0.47150000000000003
0.47100000000000003
0.47000000000000003
0.47100000000000003
0.46950000000000003
0.47100000000000003
0.4675
0.47000000000000003
0.47100000000000003
0.46950000000000003
0.4685
0.46900000000000003
0.46900000000000003
0.466
0.4675
0.4675
0.468
0.4685
0.468
0.4635
0.4655
0.4665
0.465
0.4665
0.4665
0.4675
0.46900000000000003
0.47000000000000003
0.47100000000000003
0.46900000000000003
0.47100000000000003
0.47050000000000003
0.47100000000000003
0.47150000000000003
0.47050000000000003
0.47050000000000003
0.47050000000000003
0.47150000000000003
0.46950000000000003
0.46900000000000003
0.46900000000000003
0.46950000000000003
0.46950000000000003
0.46900000000000003
0.46900000000000003
0.47000000000000003
0.47000000000000003
0.46950000000000003
0.46950000000000003
0.46950000000000003
0.47050000000000003
0.47050000000000003
0.46900000000000003
0.47050000000000003
0.47000000000000003
0.47050000000000003
0.47000000000000003
0.46950000000000003
0.47000000000000003
0.46950000000000003
0.46950000000000003
0.47000000000000003
0.46900000000000003
0.47000000000000003
0.46950000000000003
0.46950000000000003
0.46950000000000003
0.46950000000000003
0.47050000000000003
0.46950000000000003
0.4685
0.46900000000000003
0.47050000000000003
0.46950000000000003
0.468
0.46900000000000003
0.46950000000000003
0.4685
0.46950000000000003
0.46950000000000003
0.47250000000000003
0.46950000000000003
0.47050000000000003
0.47250000000000003
0.47200000000000003
0.47150000000000003
0.47150000000000003
0.47200000000000003
0.47400000000000003
0.47250000000000003
0.47100000000000003
0.47350000000000003
0.47150000000000003
0.47150000000000003
0.46950000000000003
0.47000000000000003
0.46900000000000003
0.46950000000000003
0.47100000000000003
0.47150000000000003
0.47250000000000003
0.47200000000000003
0.47350000000000003
0.47250000000000003
0.47250000000000003
0.47150000000000003
0.47100000000000003
0.47150000000000003
0.47150000000000003
0.47150000000000003
0.47050000000000003
0.47000000000000003
0.47150000000000003
0.47300000000000003
0.47550000000000003
0.47650000000000003
0.4815
0.501
0.556
0.675
0.9045
1.147
1.2655
1.243
1.1375
1.0095
0.8965
0.796
0.725
0.676
0.666
0.71
0.778
0.8195
0.8180000000000001
0.773
0.7155
0.663
0.6175
0.5825
0.557
0.5335
0.5155
0.5045000000000001
0.4915
0.485
0.47850000000000004
0.47250000000000003
0.47000000000000003
0.4655
0.4625
0.464
0.4615
0.461
0.4615
0.4605
0.462
0.465
0.464
0.464
0.465
0.463
0.463
0.4605
0.4585
0.4565
0.4585
0.46
0.4585
0.4565
0.458
0.4595
0.4605
0.4615
0.4615
0.4625
0.4655
0.466
0.4665
0.464
0.4645
0.4645
0.4655
0.4645
0.4645
0.4645
0.4645
0.4675
0.467
0.4665
0.464
0.4625
0.4645
0.465
0.463
0.4605
0.4625
0.4605
0.4635
0.462
0.462
0.462
0.461
0.461
0.4655
0.4675
0.464
0.4655
0.4635
0.463
0.4655
0.4635
0.465
0.4615
0.462
0.4645
0.4615
0.461
0.4625
0.4645
0.4655
0.466
0.4665
0.467
0.4645
0.4655
0.463
0.461
0.462
0.462
0.4615
0.467
0.464
0.4645
0.4655
0.465
0.4645
0.4655
0.4655
0.4655
0.4645
0.464
0.465
0.4655
0.4655
0.464
0.4645
0.4655
0.466
0.4675
0.4675
0.468
0.46900000000000003
0.46950000000000003
0.47000000000000003
0.46900000000000003
0.47000000000000003
0.46950000000000003
0.4685
0.4675
0.4685
0.467
0.465
0.4635
0.4635
0.4635
0.4635
0.4665
0.47250000000000003
0.4875
0.511
0.5395
0.6055
0.7645000000000001
0.9580000000000001
1.07
1.073
1.0015
0.9085
0.8195
0.7445
0.6885
0.653
0.637
0.6545
0.7195
0.786
0.8095
0.784
0.734
0.6785
0.6285000000000001
0.5905
0.56
0.5335
0.5165
0.504
0.493
0.4835
0.47650000000000003
0.47200000000000003
0.4685
0.4655
0.463
0.4625
0.4625
0.46
0.46
0.459
0.4585
0.4575
0.459
0.46
0.4605
0.4585
0.461
0.4605
0.4605
0.4605
0.46
0.46
0.4615
0.4615
0.4605
0.4615
0.4615
0.4635
0.4615
0.4625
0.4615
0.461
0.461
0.46
0.459
0.46
0.4595
0.46
0.46
0.4605
0.4595
0.461
0.461
0.459
0.4605
0.461
0.462
0.4615
0.4615
0.4615
0.46
0.46
0.4605
0.461
0.463
0.462
0.4605
0.46
0.459
0.459
0.4595
0.461
0.4595
0.4605
0.4605
0.4615
0.4625
0.464
0.4665
0.467
0.4635
0.466
0.466
0.4675
0.4685
0.4675
0.468
0.4685
0.4685
0.4675
0.4685
0.46950000000000003
0.46900000000000003
0.47050000000000003
0.46950000000000003
0.47050000000000003
0.4685
0.46900000000000003
0.467
0.4675
0.468
0.46900000000000003
0.46900000000000003
0.46900000000000003
0.4675
0.46900000000000003
0.4685
0.4675
0.467
0.4685
0.468
0.46950000000000003
0.4665
0.4665
0.465
0.4635
0.4635
0.464
0.4635
0.4655
0.466
0.467
0.4665
0.4655
0.466
0.4655
0.4655
0.4655
0.4655
0.4675
0.466
0.467
0.465
0.463
0.466
0.4665
0.4645
0.4655
0.463
0.4605
0.4605
0.46
0.4595
0.46
0.46
0.459
0.459
0.4595
0.4635
0.4685
0.4825
0.578
0.7815
0.9545
1.0075
0.9625
0.8755000000000001
0.7775
0.7075
0.6555
0.6155
0.591
0.5865
0.633
0.7045
0.746
0.737
0.7010000000000001
0.648
0.609
0.5740000000000001
0.545
0.526
0.5085000000000001
0.492
0.481
0.47400000000000003
0.468
0.467
0.465
0.463
0.4635
0.461
0.4615
0.458
0.4605
0.458
0.459
0.4625
0.465
0.4605
0.4615
0.4625
0.462
0.461
0.462
0.4615
0.4655
0.462
0.464
0.463
0.4635
0.4635
0.4645
0.464
0.465
0.4645
0.4665
0.4665
0.462
0.466
0.464
0.4625
0.461
0.461
0.4625
0.4625
0.461
0.4645
0.4595
0.4615
0.4605
0.4615
0.4625
0.4635
0.4625
0.463
0.467
0.465
0.4665
0.46900000000000003
0.4685
0.4685
0.46900000000000003
0.47000000000000003
0.46950000000000003
0.47050000000000003
0.47000000000000003
0.47000000000000003
0.47100000000000003
0.47100000000000003
0.47150000000000003
0.47200000000000003
0.47250000000000003
0.46950000000000003
0.47050000000000003
0.4685
0.46950000000000003
0.47050000000000003
0.46950000000000003
0.46950000000000003
0.47000000000000003
0.47000000000000003
0.46950000000000003
0.47100000000000003
0.46950000000000003
0.47050000000000003
0.47000000000000003
0.46950000000000003
0.46950000000000003
0.4685
0.4675
0.4675
0.4675
0.467
0.46950000000000003
0.46950000000000003
0.47050000000000003
0.47050000000000003
0.47050000000000003
0.47150000000000003
0.47150000000000003
0.47150000000000003
0.47250000000000003
0.47250000000000003
0.47300000000000003
0.47100000000000003
0.47150000000000003
0.47050000000000003
0.47150000000000003
0.47150000000000003
0.47100000000000003
0.47150000000000003
0.47200000000000003
0.47150000000000003
0.47200000000000003
0.47050000000000003
0.47050000000000003
0.46950000000000003
0.46950000000000003
0.468
0.4685
0.4685
0.46950000000000003
0.47000000000000003
0.47050000000000003
0.47100000000000003
0.47250000000000003
0.47950000000000004
0.493
0.5195
0.6495
0.864
0.9975
1.0155
0.9535
0.8635
0.7785
0.711
0.658
0.617
0.5875
0.5695
0.5745
0.5865
0.588
0.5775
0.56
0.541
0.5245
0.511
0.4995
0.491
0.485
0.4815
0.47800000000000004
0.47350000000000003
0.47100000000000003
0.47200000000000003
0.46900000000000003
0.46950000000000003
0.4685
0.46950000000000003
0.46900000000000003
0.46950000000000003
0.4685
0.47000000000000003
0.467
0.467
0.47050000000000003
0.47000000000000003
0.4685
0.4675
0.46900000000000003
0.46950000000000003
0.46950000000000003
0.46900000000000003
0.46950000000000003
0.46900000000000003
0.46950000000000003
0.46950000000000003
0.47050000000000003
0.47000000000000003
0.47050000000000003
0.47050000000000003
0.47200000000000003
0.47000000000000003
0.47100000000000003
0.47000000000000003
0.47050000000000003
0.47050000000000003
0.47050000000000003
0.47150000000000003
0.47150000000000003
0.47150000000000003
0.47150000000000003
0.47200000000000003
0.47100000000000003
0.47150000000000003
0.47250000000000003
0.47250000000000003
0.47150000000000003
0.47000000000000003
0.46950000000000003
0.47150000000000003
0.47100000000000003
0.47100000000000003
0.47100000000000003
0.47150000000000003
0.47100000000000003
0.47100000000000003
0.47050000000000003
0.47050000000000003
0.47050000000000003
0.47050000000000003
0.47000000000000003
0.47000000000000003
0.47000000000000003
0.47050000000000003
0.47050000000000003
0.47150000000000003
0.47050000000000003
0.47150000000000003
0.47100000000000003
0.47150000000000003
0.47150000000000003
0.47050000000000003
0.47200000000000003
0.46950000000000003
0.47150000000000003
0.47050000000000003
0.47050000000000003
0.47100000000000003
0.47150000000000003
0.47250000000000003
0.47150000000000003
0.47050000000000003
0.47000000000000003
0.47050000000000003
0.47100000000000003
0.46950000000000003
0.47350000000000003
0.47250000000000003
0.47000000000000003
0.47250000000000003
0.47250000000000003
0.47400000000000003
0.47250000000000003
0.47350000000000003
0.47150000000000003
0.47250000000000003
0.47100000000000003
0.47350000000000003
0.47350000000000003
0.47500000000000003
0.47200000000000003
0.47300000000000003
0.47200000000000003
0.47500000000000003
0.47350000000000003
0.47400000000000003
0.47500000000000003
0.47500000000000003
0.47350000000000003
0.47600000000000003
0.47500000000000003
0.47750000000000004
0.47600000000000003
0.47850000000000004
0.47700000000000004
0.47750000000000004
0.47700000000000004
0.47450000000000003
0.47300000000000003
0.47700000000000004
0.47400000000000003
0.47450000000000003
0.47100000000000003
0.47050000000000003
0.47350000000000003
0.47100000000000003
0.46950000000000003
0.467
0.4635
0.463
0.466
0.4645
0.4635
0.47600000000000003
0.5075000000000001
0.6435
0.987
1.0515
0.741
0.6605
0.6375000000000001
0.6605
0.7075
0.7325
0.7205
0.677
0.628
0.591
0.5615
0.5365
0.5205
0.5005000000000001
0.4915
0.4835
0.47900000000000004
0.47150000000000003
0.47350000000000003
0.4685
0.466
0.4685
0.466
0.4665
0.4675
0.4675
0.4665
0.4675
0.4675
0.4675
0.468
0.4675
0.4685
0.467
0.4675
0.4665
0.4675
0.4665
0.4675
0.46950000000000003
0.4655
0.466
0.4685
0.464
0.467
0.466
0.4665
0.4675
0.468
0.468
0.467
0.46950000000000003
0.46900000000000003
0.46950000000000003
0.46950000000000003
0.46900000000000003
0.46900000000000003
0.46900000000000003
0.4685
0.46900000000000003
0.4675
0.468
0.4685
0.467
0.465
0.466
0.4685
0.4675
0.4655
0.467
0.468
0.468
0.47050000000000003
0.47100000000000003
0.47100000000000003
0.47250000000000003
0.47250000000000003
0.47250000000000003
0.47250000000000003
0.47050000000000003
0.467
0.467
0.466
0.468
0.465
0.4655
0.4655
0.4655
0.466
0.465
0.4655
0.4645
0.4665
0.465
0.465
0.464
0.467
0.4675
0.46950000000000003
0.47100000000000003
0.47250000000000003
0.47200000000000003
0.47450000000000003
0.47100000000000003
0.47250000000000003
0.47150000000000003
0.47250000000000003
0.47300000000000003
0.47250000000000003
0.47200000000000003
0.47200000000000003
0.47250000000000003
0.47200000000000003
0.47100000000000003
0.47250000000000003
0.47350000000000003
0.47350000000000003
0.47300000000000003
0.47350000000000003
0.47350000000000003
0.47300000000000003
0.47300000000000003
0.47350000000000003
0.47550000000000003
0.47450000000000003
0.47500000000000003
0.47450000000000003
0.47250000000000003
0.47200000000000003
0.47400000000000003
0.47200000000000003
0.47400000000000003
0.47500000000000003
0.47450000000000003
0.47450000000000003
0.47300000000000003
0.47350000000000003
0.47400000000000003
0.47350000000000003
0.47250000000000003
0.47350000000000003
0.47350000000000003
0.47250000000000003
0.47250000000000003
0.47350000000000003
0.47150000000000003
0.47100000000000003
0.47150000000000003
0.47300000000000003
0.47350000000000003
0.47450000000000003
0.47550000000000003
0.47950000000000004
0.4925
0.5185
0.5700000000000001
0.7605000000000001
1.0375
1.2235
1.2685
1.201
1.0825
0.9595
0.8565
0.774
0.729
0.7075
0.7035
0.713
0.7425
0.7715
0.772
0.7435
0.6995
0.655
0.6165
0.5865
0.5615
0.5415
0.527
0.5135
0.503
0.495
0.4875
0.4825
0.47950000000000004
0.47900000000000004
0.47500000000000003
0.47450000000000003
0.47150000000000003
0.47150000000000003
0.4685
0.46900000000000003
0.4665
0.4675
0.467
0.4675
0.4675
0.4675
0.4685
0.46950000000000003
0.46950000000000003
0.46950000000000003
0.47100000000000003
0.47250000000000003
0.47000000000000003
0.46900000000000003
0.4665
0.4685
0.4675
0.46900000000000003
0.465
0.4655
0.4665
0.467
0.464
0.4625
0.462
0.4595
0.463
0.4645
0.4645
0.467
0.4685
0.4665
0.464
0.465
0.4645
0.4675
0.4645
0.4645
0.466
0.4635
0.466
0.462
0.4615
0.4615
0.4655
0.4655
0.4685
0.4655
0.4635
0.465
0.4625
0.4625
0.4635
0.4635
0.461
0.4635
0.464
0.465
0.465
0.4615
0.4625
0.463
0.461
0.463
0.4645
0.4665
0.465
0.4635
0.4645
0.4655
0.4645
0.463
0.4625
0.463
0.4635
0.465
0.4635
0.4675
0.468
0.465
0.462
0.4635
0.465
0.464
0.468
0.468
0.466
0.4655
0.4665
0.4665
0.467
0.4655
0.4685
0.467
0.4675
0.4675
0.46950000000000003
0.47100000000000003
0.47050000000000003
0.47150000000000003
0.47050000000000003
0.47050000000000003
0.46900000000000003
0.4685
0.4675
0.46900000000000003
0.46900000000000003
0.46900000000000003
0.47100000000000003
0.47050000000000003
0.47200000000000003
0.47300000000000003
0.47650000000000003
0.487
0.4975
0.526
0.6365000000000001
0.8415
1.0065
1.059
1.018
0.9325
0.8435
0.765
0.7045
0.6665
0.6525
0.666
0.735
0.8345
0.8875000000000001
0.881
0.8265
0.757
0.6940000000000001
0.6395000000000001
0.5985
0.5675
0.545
0.526
0.51
0.5
0.4885
0.483
0.47900000000000004
0.47600000000000003
0.47350000000000003
0.47150000000000003
0.46950000000000003
0.4685
0.4675
0.467
0.4675
0.4665
0.466
0.466
0.465
0.4665
0.468
0.4655
0.466
0.466
0.4655
0.4645
0.4635
0.462
0.4615
0.46
0.461
0.4595
0.46
0.4605
0.4595
0.4555
0.4595
0.458
0.4605
0.4605
0.4595
0.4595
0.461
0.4605
0.461
0.459
0.4595
0.46
0.4595
0.459
0.4595
0.46
0.4615
0.461
0.461
0.4615
0.4635
0.4645
0.4645
0.4645
0.4655
0.466
0.4655
0.4665
0.468
0.467
0.4665
0.467
0.4665
0.4675
0.4675
0.468
0.46950000000000003
0.467
0.4655
0.4665
0.467
0.467
0.4685
0.4675
0.4675
0.4675
0.4685
0.468
0.4675
0.4685
0.46900000000000003
0.468
0.4675
0.468
0.4675
0.4685
0.46900000000000003
0.4685
0.4685
0.46950000000000003
0.4685
0.4685
0.4685
0.4685
0.468
0.47000000000000003
0.46950000000000003
0.47050000000000003
0.46900000000000003
0.47050000000000003
0.4685
0.46900000000000003
0.4685
0.46900000000000003
0.46900000000000003
0.46950000000000003
0.46900000000000003
0.4685
0.46950000000000003
0.46900000000000003
0.46900000000000003
0.4685
0.46950000000000003
0.4675
0.466
0.4675
0.4675
0.4685
0.47000000000000003
0.466
0.465
0.467
0.466
0.466
0.465
0.4645
0.4645
0.4635
0.4635
0.4615
0.4625
0.462
0.4615
0.4625
0.463
0.4635
0.4655
0.47200000000000003
0.4845
0.497
0.5745
0.7995
0.9785
1.0325
0.9845
0.8955000000000001
0.8
0.7255
0.6655
0.627
0.607
0.6275000000000001
0.7085
0.7815
0.8065
0.777
0.723
0.669
0.621
0.5845
0.5575
0.534
0.5185
0.505
0.4935
0.483
0.47600000000000003
0.47300000000000003
0.46900000000000003
0.4665
0.4635
0.4625
0.4635
0.465
0.4645
0.4665
0.464
0.4645
0.465
0.464
0.4635
0.462
0.465
0.4675
0.4635
0.4655
0.464
0.4625
0.4635
0.46
0.462
0.4615
0.463
0.4615
0.462
0.463
0.4625
0.4595
0.462
0.4615
0.4615
0.466
0.4595
0.4615
0.4635
0.462
0.4615
0.463
0.458
0.4625
0.463
0.4625
0.4605
0.4645
0.467
0.4655
0.4665
0.465
0.4625
0.4655
0.4645
0.465
0.4635
0.463
0.4665
0.463
0.4635
0.4665
0.4665
0.467
0.4665
0.4665
0.4675
0.46950000000000003
0.468
0.47100000000000003
0.468
0.46900000000000003
0.46900000000000003
0.46900000000000003
0.46950000000000003
0.46950000000000003
0.46900000000000003
0.47100000000000003
0.46900000000000003
0.46950000000000003
0.47050000000000003
0.46950000000000003
0.46950000000000003
0.47000000000000003
0.47050000000000003
0.47000000000000003
0.47000000000000003
0.47150000000000003
0.47150000000000003
0.47250000000000003
0.47350000000000003
0.47350000000000003
0.47150000000000003
0.47200000000000003
0.47250000000000003
0.47300000000000003
0.47350000000000003
0.47350000000000003
0.47700000000000004
0.47550000000000003
0.47450000000000003
0.47400000000000003
0.47300000000000003
0.47450000000000003
0.47350000000000003
0.47150000000000003
0.47300000000000003
0.47300000000000003
0.47250000000000003
0.47150000000000003
0.47100000000000003
0.47050000000000003
0.47050000000000003
0.47050000000000003
0.4685
0.47000000000000003
0.47000000000000003
0.47050000000000003
0.47200000000000003
0.47250000000000003
0.47800000000000004
0.4995
0.5255
0.5615
0.6970000000000001
0.9115
1.0415
1.0585
0.997
0.9045
0.8175
0.7435
0.6815
0.637
0.6005
0.5755
0.5660000000000001
0.5665
0.5655
0.5595
0.547
0.5315
0.5185
0.5085000000000001
0.5005000000000001
0.49
0.4845
0.4805
0.47700000000000004
0.47400000000000003
0.47150000000000003
0.47000000000000003
0.46950000000000003
0.47000000000000003
0.47100000000000003
0.47050000000000003
0.47100000000000003
0.46950000000000003
0.47000000000000003
0.46900000000000003
0.47100000000000003
0.47150000000000003
0.47200000000000003
0.46950000000000003
0.46900000000000003
0.46900000000000003
0.46900000000000003
0.46950000000000003
0.4685
0.46950000000000003
0.47000000000000003
0.47100000000000003
0.46950000000000003
0.47000000000000003
0.47000000000000003
0.46950000000000003
0.47150000000000003
0.47000000000000003
0.47300000000000003
0.47150000000000003
0.47350000000000003
0.47150000000000003
0.47250000000000003
0.46900000000000003
0.4685
0.46900000000000003
0.46900000000000003
0.47000000000000003
0.47050000000000003
0.46950000000000003
0.46950000000000003
0.46950000000000003
0.47000000000000003
0.46950000000000003
0.47150000000000003
0.47000000000000003
0.4675
0.46900000000000003
0.46900000000000003
0.47050000000000003
0.46900000000000003
0.46950000000000003
0.46950000000000003
0.46950000000000003
0.47050000000000003
0.46900000000000003
0.4685
0.4675
0.46900000000000003
0.47100000000000003
0.47050000000000003
0.4685
0.4685
0.46900000000000003
0.46950000000000003
0.4685
0.4675
0.46950000000000003
0.467
0.4655
0.466
0.465
0.466
0.4655
0.4645
0.4645
0.464
0.4645
0.4665
0.463
0.4645
0.4635
0.4635
0.464
0.465
0.4645
0.464
0.4645
0.4655
0.4675
0.4665
0.4665
0.4655
0.464
0.4675
0.4685
0.4685
0.4665
0.467
0.4665
0.4635
0.465
0.4655
0.4635
0.465
0.4655
0.4665
0.4655
0.47000000000000003
0.4685
0.4655
0.4665
0.467
0.4675
0.4655
0.468
0.47150000000000003
0.47250000000000003
0.47450000000000003
0.47350000000000003
0.47100000000000003
0.47450000000000003
0.47250000000000003
0.47350000000000003
0.47150000000000003
0.47150000000000003
0.46950000000000003
0.46950000000000003
0.47050000000000003
0.4685
0.46950000000000003
0.468
0.468
0.4655
0.46950000000000003
0.47250000000000003
0.4865
0.5255
0.6895
0.9265
1.0425
1.0105
0.919
0.8180000000000001
0.727
0.6695
0.6295000000000001
0.613
0.6275000000000001
0.6815
0.747
0.756
0.712
0.663
0.6165
0.5775
0.538
0.486
0.47300000000000003
0.46900000000000003
0.46950000000000003
0.468
0.4675
0.4645
0.4645
0.4665
0.465
0.466
0.4665
0.46950000000000003
0.47150000000000003
0.4675
0.47250000000000003
0.46950000000000003
0.47000000000000003
0.47100000000000003
0.47000000000000003
0.47000000000000003
0.47000000000000003
0.47000000000000003
0.467
0.4675
0.4675
0.46900000000000003
0.4685
0.47000000000000003
0.46900000000000003
0.47050000000000003
0.47000000000000003
0.4685
0.47000000000000003
0.4685
0.47200000000000003
0.46950000000000003
0.47100000000000003
0.46950000000000003
0.46950000000000003
0.46950000000000003
0.46900000000000003
0.4685
0.47150000000000003
0.47150000000000003
0.46950000000000003
0.47000000000000003
0.46950000000000003
0.47050000000000003
0.47150000000000003
0.47200000000000003
0.47050000000000003
0.47100000000000003
0.47250000000000003
0.47050000000000003
0.47100000000000003
0.47050000000000003
0.47050000000000003
0.47150000000000003
0.47150000000000003
0.47050000000000003
0.47000000000000003
0.47050000000000003
0.47000000000000003
0.47050000000000003
0.47000000000000003
0.47000000000000003
0.47250000000000003
0.47150000000000003
0.47100000000000003
0.47300000000000003
0.47350000000000003
0.47400000000000003
0.47200000000000003
0.47300000000000003
0.47100000000000003
0.47150000000000003
0.47100000000000003
0.47250000000000003
0.47200000000000003
0.47100000000000003
0.47150000000000003
0.47250000000000003
0.47150000000000003
0.47150000000000003
0.47050000000000003
0.47250000000000003
0.47250000000000003
0.47100000000000003
0.46950000000000003
0.46900000000000003
0.467
0.4665
0.466
0.4675
0.4675
0.4675
0.468
0.4675
0.46900000000000003
0.46950000000000003
0.46900000000000003
0.47050000000000003
0.46950000000000003
0.47150000000000003
0.47250000000000003
0.46950000000000003
0.46950000000000003
0.47000000000000003
0.47050000000000003
0.47050000000000003
0.47050000000000003
0.47400000000000003
0.47350000000000003
0.47400000000000003
0.47400000000000003
0.47400000000000003
0.47350000000000003
0.47450000000000003
0.47350000000000003
0.47400000000000003
0.47350000000000003
0.47450000000000003
0.47350000000000003
0.47350000000000003
0.47450000000000003
0.47350000000000003
0.47850000000000004
0.4895
0.5045000000000001
0.5445
0.6955
0.9605
1.1685
1.23
1.1715
1.0555
0.9355
0.834
0.7545000000000001
0.7020000000000001
0.6875
0.6990000000000001
0.737
0.776
0.807
0.8015
0.7595000000000001
0.7065
0.6545
0.6145
0.5825
0.558
0.539
0.5235
0.5115000000000001
0.4995
0.4925
0.487
0.483
0.47750000000000004
0.47550000000000003
0.47300000000000003
0.47150000000000003
0.47050000000000003
0.46950000000000003
0.468
0.4675
0.4675
0.4675
0.4675
0.4675
0.4675
0.4675
0.4675
0.46900000000000003
0.4675
0.47000000000000003
0.46950000000000003
0.46900000000000003
0.467
0.4655
0.4665
0.4675
0.467
0.4665
0.4675
0.467
0.467
0.4655
0.4675
0.4665
0.4655
0.465
0.464
0.4635
0.464
0.4645
0.4655
0.462
0.4635
0.4625
0.463
0.4615
0.4625
0.464
0.4655
0.4635
0.4655
0.4675
0.466
0.467
0.4675
0.4675
0.4675
0.4675
0.4675
0.4685
0.47000000000000003
0.47050000000000003
0.4675
0.467
0.4655
0.46950000000000003
0.4675
0.468
0.4685
0.4675
0.4685
0.46950000000000003
0.4665
0.4685
0.46900000000000003
0.4685
0.4675
0.46950000000000003
0.47000000000000003
0.4675
0.47050000000000003
0.4675
0.46950000000000003
0.47150000000000003
0.46900000000000003
0.4675
0.46900000000000003
0.46950000000000003
0.46950000000000003
0.46950000000000003
0.46950000000000003
0.46950000000000003
0.47100000000000003
0.46950000000000003
0.4645
0.467
0.467
0.4645
0.467
0.4655
0.4685
0.4675
0.46900000000000003
0.466
0.4685
0.465
0.4635
0.4655
0.4645
0.4685
0.4675
0.47000000000000003
0.4615
0.466
0.463
0.463
0.4635
0.4645
0.4635
0.4685
0.47350000000000003
0.47900000000000004
0.498
0.5575
0.6335000000000001
0.8150000000000001
1.0765
1.234
1.211
1.09
0.9480000000000001
0.842
0.7705
0.7275
0.7355
0.804
0.9155
1.0045
1.0315
0.993
0.9135
0.8265
0.7485
0.6855
0.6355000000000001
0.597
0.5675
0.545
0.527
0.512
0.5015000000000001
0.492
0.4855
0.4815
0.47800000000000004
0.47450000000000003
0.47200000000000003
0.47100000000000003
0.4685
0.467
0.4685
0.4655
0.4655
0.4645
0.4605
0.4595
0.459
0.458
0.4575
0.459
0.4585
0.457
0.458
0.4585
0.4585
0.4575
0.4565
0.4555
0.457
0.458
0.457
0.4565
0.4565
0.456
0.4565
0.4565
0.4565
0.4575
0.4585
0.4605
0.4625
0.463
0.462
0.463
0.463
0.4635
0.4635
0.4635
0.4635
0.4635
0.4645
0.4645
0.464
0.4655
0.466
0.464
0.4635
0.4645
0.4635
0.4635
0.4645
0.4645
0.466
0.4655
0.465
0.4655
0.4655
0.4655
0.4665
0.465
0.466
0.4645
0.4655
0.4655
0.465
0.465
0.4655
0.4655
0.4645
0.465
0.4655
0.4665
0.4645
0.465
0.4655
0.4635
0.4655
0.4645
0.466
0.4645
0.465
0.4655
0.4665
0.4665
0.467
0.467
0.46950000000000003
0.4665
0.467
0.467
0.466
0.4665
0.4655
0.4625
0.4615
0.4615
0.46
0.4605
0.4615
0.461
0.461
0.4615
0.4615
0.4615
0.465
0.4645
0.463
0.4625
0.4645
0.4655
0.4655
0.4635
0.4655
0.465
0.4675
0.4665
0.467
0.468
0.4675
0.468
0.4685
0.4655
0.4655
0.4645
0.4615
0.465
0.4625
0.463
0.4615
0.4645
0.4845
0.512
0.541
0.6665
0.8965
1.0665
1.114
1.061
0.96
0.8535
0.7685
0.6990000000000001
0.645
0.6165
0.6225
0.6725
0.741
0.7815
0.7785
0.742
0.6930000000000001
0.6395000000000001
0.596
0.562
0.5405
0.5245
0.5115000000000001
0.503
0.4885
0.4815
0.47600000000000003
0.47100000000000003
0.47050000000000003
0.4665
0.4675
0.4655
0.4635
0.4615
0.462
0.463
0.462
0.4625
0.4625
0.462
0.462
0.462
0.462
0.465
0.4625
0.4615
0.462
0.4605
0.4625
0.4595
0.4615
0.4615
0.4615
0.459
0.4625
0.463
0.463
0.462
0.4625
0.46
0.4595
0.4615
0.4615
0.4595
0.459
0.4585
0.458
0.458
0.4575
0.459
0.4635
0.4615
0.46
0.458
0.462
0.4565
0.46
0.4615
0.4575
0.4565
0.4595
0.4605
0.4605
0.46
0.462
0.46
0.4625
0.4615
0.4625
0.4605
0.4605
0.4635
0.461
0.462
0.461
0.458
0.4625
0.461
0.4625
0.464
0.4635
0.4645
0.463
0.4655
0.4635
0.4645
0.4655
0.4665
0.467
0.467
0.4655
0.4665
0.466
0.4665
0.467
0.4685
0.467
0.467
0.4675
0.4675
0.46950000000000003
0.46950000000000003
0.46950000000000003
0.47000000000000003
0.468
0.46900000000000003
0.4665
0.466
0.466
0.466
0.4665
0.4655
0.4665
0.4625
0.4635
0.4635
0.464
0.462
0.4605
0.4585
0.4575
0.4575
0.4575
0.4575
0.4575
0.4585
0.4585
0.457
0.459
0.4655
0.47900000000000004
0.499
0.5700000000000001
0.727
0.8365
0.8605
0.8235
0.7575000000000001
0.6915
0.638
0.5985
0.5675
0.543
0.525
0.5185
0.519
0.5225
0.5205
0.513
0.5025000000000001
0.4915
0.4845
0.47550000000000003
0.47050000000000003
0.467
0.465
0.4645
0.4635
0.462
0.463
0.464
0.4645
0.4655
0.4645
0.4655
0.465
0.4655
0.4655
0.467
0.467
0.46900000000000003
0.4685
0.46950000000000003
0.47000000000000003
0.4685
0.4685
0.46950000000000003
0.46950000000000003
0.47050000000000003
0.47000000000000003
0.47100000000000003
0.46950000000000003
0.46950000000000003
0.46950000000000003
0.47050000000000003
0.46950000000000003
0.46900000000000003
0.468
0.467
0.465
0.4655
0.4665
0.4645
0.4635
0.4635
0.4645
0.4655
0.467
0.4675
0.47000000000000003
0.46950000000000003
0.47050000000000003
0.46900000000000003
0.46900000000000003
0.46950000000000003
0.468
0.46950000000000003
0.46950000000000003
0.46900000000000003
0.46950000000000003
0.46950000000000003
0.47000000000000003
0.47050000000000003
0.47000000000000003
0.47050000000000003
0.46950000000000003
0.47050000000000003
0.47050000000000003
0.47000000000000003
0.47000000000000003
0.47050000000000003
0.47000000000000003
0.47050000000000003
0.46950000000000003
0.47050000000000003
0.47050000000000003
0.47150000000000003
0.47100000000000003
0.47050000000000003
0.47050000000000003
0.47100000000000003
0.47100000000000003
0.47050000000000003
0.47100000000000003
0.47050000000000003
0.47150000000000003
0.47150000000000003
0.47250000000000003
0.47050000000000003
0.47250000000000003
0.47000000000000003
0.47000000000000003
0.47100000000000003
0.47050000000000003
0.47300000000000003
0.47150000000000003
0.47150000000000003
0.47000000000000003
0.47050000000000003
0.47000000000000003
0.47100000000000003
0.47100000000000003
0.46950000000000003
0.46950000000000003
0.47100000000000003
0.468
0.468
0.47000000000000003
0.4655
0.4645
0.465
0.465
0.4655
0.4665
0.4655
0.46950000000000003
0.47050000000000003
0.47300000000000003
0.47200000000000003
0.47350000000000003
0.47600000000000003
0.47350000000000003
0.47350000000000003
0.47350000000000003
0.47300000000000003
0.47450000000000003
0.47500000000000003
0.47600000000000003
0.47200000000000003
0.47250000000000003
0.47300000000000003
0.47250000000000003
0.47550000000000003
0.47000000000000003
0.46900000000000003
0.467
0.468
0.4665
0.467
0.465
0.467
0.4665
0.4675
0.4685
0.47150000000000003
0.4825
0.497
0.5785
0.775
0.9390000000000001
0.9915
0.9495
0.866
0.782
0.7135
0.6635
0.621
0.602
0.6095
0.6435
0.6715
0.6665
0.6375000000000001
0.595
0.5585
0.5305
0.5085000000000001
0.4975
0.4885
0.483
0.47650000000000003
0.47100000000000003
0.47150000000000003
0.46950000000000003
0.47100000000000003
0.468
0.466
0.466
0.463
0.466
0.467
0.467
0.464
0.4635
0.463
0.468
0.466
0.465
0.4665
0.4675
0.4645
0.4665
0.465
0.4655
0.4655
0.467
0.466
0.466
0.46900000000000003
0.46900000000000003
0.466
0.4645
0.464
0.4655
0.4665
0.467
0.46950000000000003
0.468
0.4675
0.46950000000000003
0.46900000000000003
0.47000000000000003
0.46950000000000003
0.47100000000000003
0.46950000000000003
0.47100000000000003
0.46950000000000003
0.4685
0.47000000000000003
0.47050000000000003
0.46950000000000003
0.47000000000000003
0.47150000000000003
0.47100000000000003
0.47150000000000003
0.47150000000000003
0.47200000000000003
0.47050000000000003
0.47150000000000003
0.47350000000000003
0.47050000000000003
0.47000000000000003
0.47100000000000003
0.47150000000000003
0.47050000000000003
0.47250000000000003
0.47350000000000003
0.47100000000000003
0.47100000000000003
0.47150000000000003
0.47250000000000003
0.47200000000000003
0.47150000000000003
0.47250000000000003
0.47150000000000003
0.47150000000000003
0.47150000000000003
0.47150000000000003
0.47100000000000003
0.47200000000000003
0.47100000000000003
0.47150000000000003
0.47150000000000003
0.47250000000000003
0.47350000000000003
0.47300000000000003
0.47150000000000003
0.47350000000000003
0.47100000000000003
0.47050000000000003
0.47150000000000003
0.47300000000000003
0.47150000000000003
0.47250000000000003
0.47000000000000003
0.47250000000000003
0.47300000000000003
0.47300000000000003
0.47300000000000003
0.47250000000000003
0.47300000000000003
0.47300000000000003
0.47300000000000003
0.47300000000000003
0.47250000000000003
0.47250000000000003
0.47300000000000003
0.47300000000000003
0.47400000000000003
0.47450000000000003
0.47350000000000003
0.47200000000000003
0.47250000000000003
0.47150000000000003
0.47100000000000003
0.47050000000000003
0.47050000000000003
0.47150000000000003
0.47100000000000003
0.47150000000000003
0.47300000000000003
0.47350000000000003
0.47950000000000004
0.5135
0.562
0.6475
0.8415
1.065
1.2025000000000001
1.2175
1.1315
1.0105
0.8965
0.8065
0.7355
0.6855
0.669
0.7015
0.7635000000000001
0.8315
0.8835000000000001
0.8865000000000001
0.8415
0.7775
0.715
0.657
0.6175
0.5835
0.557
0.536
0.5195
0.507
0.4965
0.4865
0.481
0.47650000000000003
0.47200000000000003
0.46950000000000003
0.468
0.4675
0.463
0.4625
0.462
0.462
0.462
0.463
0.4635
0.465
0.4645
0.4655
0.466
0.4675
0.4675
0.4675
0.467
0.4635
0.4655
0.4655
0.4655
0.4655
0.465
0.4655
0.465
0.4645
0.4635
0.4625
0.4615
0.461
0.462
0.4635
0.4645
0.4675
0.4665
0.466
0.4665
0.4665
0.466
0.467
0.4665
0.4665
0.468
0.4675
0.468
0.4685
0.4685
0.4675
0.4675
0.46900000000000003
0.46950000000000003
0.4675
0.467
0.4665
0.46900000000000003
0.4675
0.46900000000000003
0.4665
0.468
0.467
0.4675
0.468
0.4665
0.4675
0.4675
0.465
0.4665
0.47000000000000003
0.46900000000000003
0.466
0.4685
0.4675
0.4685
0.4665
0.468
0.468
0.4675
0.4645
0.4665
0.4685
0.46950000000000003
0.46950000000000003
0.47050000000000003
0.4685
0.46950000000000003
0.46900000000000003
0.47050000000000003
0.47050000000000003
0.47050000000000003
0.467
0.47000000000000003
0.467
0.4665
0.465
0.47150000000000003
0.46950000000000003
0.4685
0.467
0.466
0.47000000000000003
0.468
0.4675
0.47100000000000003
0.47050000000000003
0.46950000000000003
0.465
0.4685
0.467
0.47150000000000003
0.47000000000000003
0.46900000000000003
0.4675
0.4675
0.4665
0.4635
0.46900000000000003
0.47250000000000003
0.481
0.508
0.5595
0.6815
0.9555
1.2315
1.3325
1.2595
1.102
0.9575
0.844
0.7615000000000001
0.7215
0.7385
0.8115
0.89
0.929
0.9135
0.8575
0.783
0.715
0.6615
0.6175
0.5825
0.555
0.5345
0.5175
0.5035000000000001
0.494
0.4855
0.48
0.47550000000000003
0.47150000000000003
0.47000000000000003
0.4665
0.467
0.4655
0.4645
0.4645
0.4645
0.464
0.465
0.4635
0.4635
0.4635
0.4645
0.463
0.463
0.4625
0.461
0.4595
0.459
0.459
0.4585
0.4575
0.4575
0.457
0.4565
0.4575
0.4585
0.4575
0.4565
0.4575
0.4585
0.461
0.4595
0.4595
0.457
0.4555
0.4565
0.457
0.4565
0.4565
0.457
0.458
0.458
0.458
0.4575
0.4575
0.457
0.4585
0.4565
0.4565
0.4565
0.4585
0.456
0.4575
0.457
0.458
0.459
0.459
0.4595
0.4615
0.4605
0.461
0.4585
0.4595
0.46
0.4595
0.459
0.4595
0.4605
0.4615
0.463
0.4635
0.465
0.4645
0.4655
0.4665
0.465
0.465
0.4655
0.466
0.4665
0.466
0.466
0.4665
0.467
0.46900000000000003
0.467
0.4675
0.4665
0.4655
0.4655
0.466
0.4665
0.466
0.4655
0.467
0.4675
0.467
0.4665
0.467
0.4655
0.4655
0.4625
0.462
0.4615
0.4615
0.461
0.461
0.461
0.4605
0.46
0.4615
0.4595
0.4585
0.4585
0.4605
0.4595
0.4605
0.461
0.464
0.464
0.465
0.467
0.4645
0.467
0.4655
0.465
0.464
0.4635
0.4635
0.4635
0.4635
0.4625
0.4635
0.464
0.4625
0.463
0.47500000000000003
0.5035000000000001
0.5355
0.6395000000000001
0.8605
1.0475
1.115
1.0765
0.9755
0.8705
0.776
0.7055
0.6485
0.6415
0.736
0.8045
0.8375
0.8170000000000001
0.7555000000000001
0.6915
0.638
0.597
0.5680000000000001
0.5435
0.523
0.5075000000000001
0.495
0.4855
0.47750000000000004
0.47250000000000003
0.468
0.4655
0.4635
0.4605
0.459
0.4605
0.4565
0.4575
0.4565
0.4565
0.4565
0.453
0.4575
0.456
0.4575
0.4575
0.4605
0.463
0.4605
0.459
0.459
0.4605
0.4595
0.4615
0.464
0.46
0.461
0.4605
0.4625
0.462
0.4615
0.4615
0.461
0.4615
0.4615
0.463
0.4615
0.4615
0.4635
0.4635
0.4625
0.4605
0.4615
0.462
0.4605
0.4615
0.459
0.4605
0.4575
0.4605
0.4615
0.4595
0.4595
0.4585
0.4555
0.4565
0.46
0.4595
0.462
0.4615
0.459
0.46
0.4615
0.4645
0.4605
0.459
0.4595
0.4625
0.4605
0.463
0.4635
0.463
0.4645
0.4595
0.4615
0.4615
0.4655
0.462
0.464
0.4605
0.462
0.4615
0.462
0.461
0.462
0.4625
0.4625
0.46
0.46
0.4625
0.4635
0.4615
0.462
0.463
0.4635
0.4635
0.4645
0.4645
0.4635
0.4635
0.4625
0.4625
0.4635
0.4665
0.467
0.4675
0.4675
0.4675
0.4675
0.4685
0.465
0.462
0.4605
0.4615
0.4605
0.4605
0.461
0.463
0.462
0.4625
0.463
0.4685
0.4835
0.503
0.5325
0.633
0.805
0.929
0.9515
0.899
0.8205
0.744
0.6795
0.6295000000000001
0.5855
0.5630000000000001
0.5535
0.5535
0.558
0.5595
0.5525
0.539
0.524
0.5115000000000001
0.498
0.4895
0.482
0.47800000000000004
0.47300000000000003
0.47000000000000003
0.4675
0.466
0.4665
0.4665
0.466
0.4665
0.467
0.4675
0.468
0.468
0.4665
0.4675
0.4665
0.4665
0.4665
0.4675
0.4685
0.4675
0.467
0.467
0.4675
0.4685
0.4675
0.4675
0.465
0.4655
0.465
0.4635
0.4625
0.4635
0.4625
0.4615
0.4615
0.462
0.4615
0.462
0.4615
0.4605
0.462
0.4635
0.4585
0.461
0.4615
0.4615
0.4605
0.4605
0.4605
0.461
0.462
0.4635
0.4655
0.4655
0.4675
0.467
0.4675
0.468
0.4675
0.4685
0.468
0.4685
0.468
0.46900000000000003
0.46900000000000003
0.4685
0.4685
0.47000000000000003
0.47100000000000003
0.47100000000000003
0.4685
0.47050000000000003
0.46900000000000003
0.46950000000000003
0.47050000000000003
0.467
0.46900000000000003
0.46900000000000003
0.4685
0.46950000000000003
0.4685
0.46950000000000003
0.46950000000000003
0.46950000000000003
0.46950000000000003
0.47000000000000003
0.47000000000000003
0.47050000000000003
0.47000000000000003
0.46950000000000003
0.46950000000000003
0.46950000000000003
0.46950000000000003
0.46950000000000003
0.46900000000000003
0.46900000000000003
0.46950000000000003
0.46900000000000003
0.46950000000000003
0.47100000000000003
0.47100000000000003
0.47000000000000003
0.47050000000000003
0.47100000000000003
0.47150000000000003
0.46950000000000003
0.47200000000000003
0.47100000000000003
0.47050000000000003
0.47000000000000003
0.468
0.47000000000000003
0.47000000000000003
0.46950000000000003
0.47000000000000003
0.46950000000000003
0.47100000000000003
0.47050000000000003
0.47200000000000003
0.47150000000000003
0.47000000000000003
0.47050000000000003
0.46900000000000003
0.47000000000000003
0.47000000000000003
0.47000000000000003
0.46950000000000003
0.46950000000000003
0.47300000000000003
0.47050000000000003
0.47000000000000003
0.4675
0.467
0.4675
0.463
0.4645
0.4635
0.4635
0.4635
0.4625
0.4675
0.47750000000000004
0.5025000000000001
0.5845
0.787
0.978
1.0565
1.03
0.9485
0.851
0.771
0.7035
0.652
0.6165
0.595
0.5925
0.6005
0.6075
0.604
0.5895
0.5665
0.54
0.52
0.503
0.491
0.483
0.47850000000000004
0.47400000000000003
0.47150000000000003
0.46900000000000003
0.4635
0.463
0.4645
0.4625
0.4655
0.462
0.462
0.461
0.461
0.4625
0.462
0.466
0.4645
0.4635
0.4615
0.4655
0.463
0.4655
0.463
0.46
0.461
0.4635
0.463
0.4655
0.465
0.467
0.466
0.47100000000000003
0.4685
0.4665
0.467
0.468
0.466
0.4665
0.4675
0.4685
0.466
0.4655
0.4675
0.468
0.4685
0.46950000000000003
0.4675
0.4685
0.46900000000000003
0.47150000000000003
0.47000000000000003
0.47150000000000003
0.47000000000000003
0.47050000000000003
0.47150000000000003
0.47150000000000003
0.47050000000000003
0.47050000000000003
0.46950000000000003
0.47000000000000003
0.47050000000000003
0.46950000000000003
0.47050000000000003
0.468
0.47150000000000003
0.46900000000000003
0.4665
0.467
0.467
0.4665
0.46950000000000003
0.468
0.46950000000000003
0.46950000000000003
0.47000000000000003
0.47150000000000003
0.47100000000000003
0.47050000000000003
0.47050000000000003
0.47200000000000003
0.47150000000000003
0.47150000000000003
0.47250000000000003
0.47200000000000003
0.47200000000000003
0.47250000000000003
0.47250000000000003
0.47300000000000003
0.47200000000000003
0.47200000000000003
0.47150000000000003
0.47300000000000003
0.47300000000000003
0.47350000000000003
0.47350000000000003
0.47400000000000003
0.47550000000000003
0.47450000000000003
0.47700000000000004
0.47650000000000003
0.47550000000000003
0.47400000000000003
0.47450000000000003
0.47450000000000003
0.47450000000000003
0.47450000000000003
0.47550000000000003
0.47450000000000003
0.47500000000000003
0.47450000000000003
0.47450000000000003
0.47500000000000003
0.47400000000000003
0.47450000000000003
0.47250000000000003
0.47200000000000003
0.47300000000000003
0.47100000000000003
0.47300000000000003
0.47450000000000003
0.47300000000000003
0.47200000000000003
0.47350000000000003
0.47950000000000004
0.5135
0.592
0.7975
1.0735000000000001
1.2785
1.3125
1.2275
1.0945
0.9675
0.8615
0.7785
0.723
0.713
0.7435
0.789
0.8255
0.833
0.8075
0.7585000000000001
0.6985
0.6505
0.61
0.577
0.5535
0.535
0.522
0.5095000000000001
0.4995
0.492
0.4855
0.481
0.47850000000000004
0.47500000000000003
0.47300000000000003
0.47150000000000003
0.46950000000000003
0.46900000000000003
0.46900000000000003
0.467
0.466
0.4655
0.465
0.4665
0.466
0.4655
0.4655
0.466
0.4655
0.466
0.468
0.466
0.466
0.4655
0.4655
0.4665
0.466
0.4675
0.466
0.4665
0.4655
0.4655
0.464
0.463
0.462
0.461
0.4615
0.462
0.462
0.461
0.4595
0.4595
0.459
0.4595
0.4595
0.459
0.46
0.463
0.4625
0.463
0.4635
0.4645
0.4645
0.4655
0.4665
0.4675
0.4675
0.466
0.468
0.465
0.4665
0.466
0.467
0.467
0.4675
0.4675
0.467
0.4665
0.4665
0.4675
0.467
0.4665
0.467
0.4685
0.468
0.4685
0.4685
0.4685
0.46900000000000003
0.468
0.468
0.468
0.468
0.4685
0.4685
0.47050000000000003
0.4685
0.4675
0.4685
0.468
0.4685
0.468
0.4675
0.468
0.467
0.4675
0.46950000000000003
0.46900000000000003
0.4685
0.468
0.468
0.468
0.46950000000000003
0.4685
0.4685
0.468
0.47000000000000003
0.47250000000000003
0.47000000000000003
0.46950000000000003
0.46900000000000003
0.4685
0.468
0.46900000000000003
0.46950000000000003
0.4685
0.46950000000000003
0.46950000000000003
0.47000000000000003
0.46900000000000003
0.47000000000000003
0.466
0.4655
0.467
0.4655
0.4645
0.468
0.4635
0.4625
0.4635
0.463
0.4635
0.462
0.461
0.465
0.47000000000000003
0.47300000000000003
0.5055000000000001
0.6145
0.757
0.9195
1.137
1.3205
1.3115
1.1465
0.9785
0.8345
0.765
0.8645
1.071
1.2105000000000001
1.1605
0.961
0.8435
0.7575000000000001
0.682
0.6295000000000001
0.585
0.55
0.5185
0.504
0.4935
0.47950000000000004
0.46950000000000003
0.459
0.453
0.4545
0.4555
0.4535
0.454
0.4515
0.4515
0.449
0.449
0.4515
0.45
0.4475
0.4515
0.4525
0.455
0.454
0.4535
0.4545
0.4535
0.4535
0.4525
0.4525
0.4515
0.4525
0.4535
0.452
0.4525
0.453
0.4515
0.452
0.4525
0.4525
0.4515
0.452
0.452
0.4525
0.4525
0.4525
0.4525
0.454
0.4555
0.453
0.453
0.4535
0.453
0.4525
0.4545
0.454
0.4535
0.453
0.4535
0.454
0.455
0.4545
0.4545
0.455
0.456
0.453
0.4545
0.4545
0.4555
0.455
0.4545
0.4535
0.4545
0.456
0.4585
0.4595
0.4605
0.461
0.4595
0.4615
0.4615
0.462
0.461
0.461
0.4615
0.462
0.462
0.462
0.4645
0.4645
0.462
0.4615
0.461
0.4625
0.4615
0.4635
0.4635
0.4635
0.4635
0.4635
0.4635
0.465
0.4665
0.466
0.466
0.4655
0.467
0.4665
0.467
0.4675
0.4675
0.4665
0.4665
0.466
0.467
0.465
0.4665
0.4645
0.465
0.4655
0.4635
0.4645
0.4645
0.464
0.4625
0.4625
0.461
0.4615
0.4615
0.461
0.461
0.4625
0.4625
0.4675
0.49
0.5355
0.5895
0.7055
0.9185
1.1055
1.1795
1.1435
1.0435
0.9315
0.834
0.755
0.6930000000000001
0.6535
0.6565
0.7020000000000001
0.7855
0.8665
0.8885000000000001
0.849
0.778
0.7075
0.65
0.6095
0.5785
0.555
0.535
0.516
0.5015000000000001
0.4905
0.47950000000000004
0.47400000000000003
0.4675
0.4655
0.458
0.4585
0.4575
0.4555
0.455
0.455
0.453
0.4515
0.453
0.4525
0.454
0.455
0.4555
0.4555
0.4555
0.4555
0.4555
0.4565
0.4575
0.458
0.4595
0.456
0.4575
0.4575
0.4565
0.4585
0.4585
0.458
0.4575
0.4575
0.4565
0.4565
0.456
0.4565
0.4565
0.4575
0.458
0.4585
0.458
0.458
0.456
0.4565
0.4555
0.4545
0.454
0.4535
0.45
0.451
0.4515
0.451
0.4545
0.453
0.4515
0.4555
0.4515
0.455
0.454
0.4525
0.454
0.4535
0.45
0.45
0.4525
0.454
0.4565
0.4585
0.4575
0.4575
0.4585
0.459
0.458
0.4585
0.4595
0.4595
0.46
0.4595
0.4595
0.459
0.4605
0.4615
0.4615
0.4545
0.4605
0.459
0.463
0.4595
0.4565
0.4575
0.459
0.459
0.4595
0.457
0.4585
0.455
0.455
0.4575
0.4555
0.455
0.4555
0.459
0.455
0.4555
0.457
0.4555
0.454
0.4565
0.46
0.4605
0.4565
0.4525
0.454
0.4515
0.452
0.453
0.456
0.4555
0.459
0.4585
0.4585
0.459
0.47150000000000003
0.509
0.6225
0.8175
0.9495
0.9625
0.8975
0.8135
0.737
0.675
0.626
0.5895
0.562
0.557
0.578
0.6055
0.6155
0.61
0.585
0.5605
0.5365
0.5165
0.5035000000000001
0.492
0.4835
0.47550000000000003
0.46950000000000003
0.467
0.462
0.462
0.4595
0.4605
0.4605
0.461
0.461
0.4615
0.461
0.4615
0.4615
0.46
0.4615
0.461
0.462
0.4595
0.46
0.46
0.46
0.4605
0.461
0.461
0.4625
0.4625
0.462
0.4635
0.4635
0.462
0.461
0.461
0.4615
0.461
0.461
0.4595
0.4595
0.4605
0.46
0.4615
0.4595
0.4595
0.4625
0.458
0.4595
0.4595
0.46
0.462
0.4595
0.46
0.4605
0.4615
0.461
0.4615
0.462
0.462
0.462
0.462
0.4625
0.4635
0.4625
0.4635
0.4635
0.4645
0.463
0.463
0.4635
0.4635
0.4635
0.4635
0.4635
0.4635
0.4635
0.4635
0.4675
0.467
0.465
0.4655
0.4625
0.464
0.4635
0.4645
0.4645
0.4645
0.465
0.4655
0.4645
0.4655
0.4665
0.466
0.466
0.4655
0.4625
0.4625
0.4605
0.4595
0.4585
0.4585
0.459
0.4605
0.46
0.4595
0.4605
0.4595
0.4605
0.46
0.458
0.4575
0.458
0.4595
0.461
0.461
0.4625
0.465
0.4665
0.467
0.4685
0.47000000000000003
0.47050000000000003
0.47150000000000003
0.4685
0.46950000000000003
0.47000000000000003
0.4675
0.4675
0.46900000000000003
0.4655
0.4665
0.4625
0.4635
0.4645
0.465
0.4645
0.464
0.4635
0.463
0.463
0.463
0.4625
0.4635
0.4645
0.4645
0.464
0.47000000000000003
0.489
0.542
0.6755
0.8915000000000001
1.0715000000000001
1.118
1.0605
0.961
0.8615
0.7795
0.7155
0.667
0.6375000000000001
0.6345000000000001
0.6645
0.6940000000000001
0.7015
0.6855
0.6525
0.6155
0.5815
0.5545
0.533
0.5165
0.5025000000000001
0.492
0.484
0.47950000000000004
0.47150000000000003
0.468
0.4675
0.466
0.4615
0.4635
0.4605
0.459
0.4605
0.4595
0.461
0.463
0.4595
0.4595
0.4615
0.4605
0.462
0.4615
0.461
0.462
0.463
0.4625
0.465
0.4645
0.4625
0.4615
0.4615
0.4635
0.4625
0.4645
0.4615
0.463
0.4625
0.461
0.46
0.4615
0.4625
0.4615
0.4575
0.4595
0.4595
0.4615
0.4625
0.4615
0.4605
0.4625
0.4595
0.4575
0.455
0.457
0.4595
0.4585
0.4595
0.457
0.46
0.4615
0.4615
0.459
0.4625
0.4635
0.4575
0.46
0.461
0.461
0.46
0.457
0.4615
0.455
0.4595
0.4575
0.459
0.4625
0.461
0.4615
0.4625
0.4635
0.461
0.4615
0.4615
0.4635
0.465
0.463
0.462
0.4645
0.468
0.464
0.463
0.463
0.4645
0.4655
0.466
0.4665
0.467
0.467
0.4675
0.468
0.4685
0.47000000000000003
0.47050000000000003
0.4675
0.4685
0.4675
0.4675
0.468
0.4685
0.4685
0.47000000000000003
0.46900000000000003
0.4685
0.47050000000000003
0.4675
0.466
0.4665
0.466
0.4655
0.4645
0.4635
0.4635
0.4635
0.464
0.465
0.4675
0.4915
0.5625
0.6725
0.8965
1.1265
1.2515
1.2475
1.151
1.025
0.9065
0.8105
0.735
0.6775
0.6525
0.6715
0.7335
0.81
0.8555
0.8595
0.8250000000000001
0.7635000000000001
0.6995
0.6475
0.606
0.5735
0.5475
0.5275
0.5095000000000001
0.4955
0.4855
0.47750000000000004
0.47200000000000003
0.4675
0.4675
0.4635
0.4615
0.4605
0.4565
0.4565
0.4585
0.457
0.4555
0.458
0.4585
0.4605
0.4585
0.46
0.46
0.4595
0.4595
0.461
0.463
0.462
0.462
0.4605
0.461
0.4615
0.4605
0.461
0.4615
0.4615
0.4625
0.4625
0.4615
0.461
0.4615
0.4615
0.4615
0.462
0.4635
0.4615
0.4605
0.4625
0.4625
0.462
0.4635
0.4625
0.462
0.4625
0.4635
0.463
0.4625
0.4625
0.465
0.4645
0.4625
0.463
0.462
0.4625
0.4625
0.4635
0.4635
0.463
0.4625
0.4645
0.4635
0.465
0.4635
0.4635
0.4645
0.464
0.4635
0.4645
0.463
0.4645
0.464
0.464
0.465
0.464
0.465
0.464
0.4635
0.4635
0.464
0.464
0.4635
0.4645
0.4645
0.465
0.464
0.465
0.4655
0.4655
0.465
0.4675
0.468
0.464
0.465
0.4635
0.4645
0.4635
0.4635
0.4635
0.4645
0.4675
0.4665
0.4665
0.4645
0.4665
0.4675
0.467
0.46900000000000003
0.47000000000000003
0.47150000000000003
0.46950000000000003
0.4685
0.4685
0.47000000000000003
0.4675
0.4675
0.466
0.465
0.4645
0.466
0.464
0.466
0.467
0.466
0.4655
0.465
0.4655
0.467
0.4645
0.465
0.4665
0.4685
0.47000000000000003
0.47500000000000003
0.508
0.579
0.6965
0.873
1.171
1.4665000000000001
1.5515
1.4195
1.1965000000000001
1.006
0.881
0.801
0.798
0.9145
1.0645
1.161
1.1145
1.0055
0.8865000000000001
0.781
0.7085
0.6405
0.5875
0.5515
0.5225
0.502
0.487
0.4655
0.448
0.445
0.4465
0.448
0.448
0.446
0.4455
0.447
0.447
0.444
0.4465
0.4435
0.445
0.446
0.4475
0.4465
0.449
0.4485
0.448
0.4515
0.449
0.45
0.45
0.451
0.4505
0.4505
0.4515
0.451
0.451
0.4515
0.451
0.4515
0.4485
0.4485
0.4475
0.4475
0.446
0.4475
0.4495
0.4495
0.4495
0.4515
0.451
0.4495
0.4485
0.4465
0.4485
0.4495
0.4505
0.449
0.4505
0.452
0.4515
0.4485
0.449
0.448
0.4485
0.4495
0.4495
0.4505
0.4495
0.4495
0.4515
0.451
0.4495
0.449
0.4495
0.448
0.4495
0.4495
0.4495
0.4495
0.4505
0.451
0.4555
0.4545
0.4555
0.457
0.457
0.457
0.4585
0.4585
0.458
0.459
0.46
0.46
0.4595
0.4595
0.4595
0.46
0.46
0.4585
0.4605
0.4615
0.4605
0.4635
0.46
0.4605
0.461
0.4605
0.4605
0.4605
0.4605
0.461
0.4625
0.4625
0.4605
0.4595
0.4605
0.461
0.4595
0.46
0.461
0.4595
0.459
0.4605
0.4595
0.459
0.459
0.458
0.4575
0.457
0.457
0.4565
0.4565
0.4575
0.4575
0.4585
0.4635
0.4905
0.5235
0.5745
0.7225
0.9785
1.1955
1.2935
1.2625
1.1515
1.0245
0.9095
0.8195
0.7525000000000001
0.7065
0.7010000000000001
0.7585000000000001
0.862
0.9555
0.9995
0.9755
0.9035
0.8205
0.746
0.6855
0.6405
0.606
0.5775
0.5545
0.5295
0.5135
0.4995
0.488
0.4805
0.47400000000000003
0.47050000000000003
0.465
0.462
0.4595
0.4575
0.457
0.4555
0.4555
0.455
0.4535
0.453
0.4525
0.452
0.451
0.451
0.4525
0.451
0.4495
0.449
0.4505
0.447
0.45
0.4485
0.4515
0.4485
0.4505
0.4495
0.449
0.449
0.4485
0.4495
0.448
0.448
0.447
0.446
0.4465
0.446
0.448
0.4475
0.4465
0.4465
0.4495
0.447
0.447
0.45
0.447
0.4465
0.447
0.446
0.4485
0.4445
0.4465
0.4455
0.445
0.4455
0.4465
0.4435
0.445
0.447
0.4455
0.446
0.4495
0.4495
0.4505
0.4525
0.4525
0.4535
0.453
0.4525
0.4505
0.453
0.4525
0.454
0.454
0.4535
0.4555
0.455
0.454
0.456
0.4565
0.455
0.4535
0.453
0.4485
0.452
0.45
0.4505
0.4515
0.4485
0.4505
0.4475
0.449
0.448
0.4485
0.449
0.4545
0.4545
0.453
0.458
0.457
0.4545
0.4545
0.453
0.4515
0.455
0.456
0.4525
0.4535
0.451
0.4505
0.4495
0.448
0.451
0.449
0.4555
0.452
0.454
0.454
0.4655
0.4955
0.5445
0.661
0.9055
1.1235
1.1935
1.141
1.029
0.9135
0.8140000000000001
0.7325
0.6725
0.628
0.601
0.593
0.6155
0.6465
0.6575
0.642
0.609
0.5750000000000001
0.544
0.521
0.503
0.4895
0.47950000000000004
0.47150000000000003
0.4645
0.46
0.4575
0.452
0.452
0.451
0.4495
0.448
0.4475
0.4475
0.4475
0.4465
0.4475
0.449
0.4485
0.45
0.45
0.4465
0.4475
0.4465
0.447
0.4445
0.446
0.4475
0.4475
0.4485
0.448
0.4495
0.4495
0.4515
0.452
0.454
0.454
0.4545
0.454
0.455
0.4555
0.454
0.453
0.4505
0.4525
0.449
0.4485
0.4495
0.4505
0.4505
0.454
0.4545
0.4535
0.454
0.451
0.4515
0.452
0.452
0.4535
0.4515
0.448
0.4505
0.4495
0.4495
0.45
0.4505
0.4505
0.45
0.4505
0.449
0.4495
0.45
0.4495
0.4495
0.4505
0.4495
0.4495
0.4495
0.4495
0.451
0.4515
0.453
0.4545
0.4575
0.4555
0.4575
0.4585
0.4555
0.4575
0.458
0.4575
0.4575
0.4575
0.458
0.4585
0.4575
0.458
0.458
0.4585
0.46
0.456
0.458
0.458
0.459
0.458
0.4585
0.4585
0.4585
0.4595
0.459
0.46
0.461
0.4605
0.46
0.4595
0.459
0.4595
0.459
0.4585
0.4595
0.459
0.4595
0.4595
0.4615
0.4595
0.4595
0.46
0.4595
0.4605
0.458
0.4585
0.459
0.4595
0.4595
0.4585
0.459
0.459
0.4585
0.457
0.458
0.4555
0.4565
0.455
0.454
0.454
0.4545
0.4575
0.4655
0.495
0.5545
0.6795
0.9235
1.1355
1.2115
1.1675
1.058
0.9395
0.8385
0.7565000000000001
0.6925
0.6505
0.6195
0.6355000000000001
0.7010000000000001
0.7555000000000001
0.7705
0.7455
0.6970000000000001
0.6425
0.6005
0.5655
0.5385
0.519
0.506
0.4925
0.482
0.47400000000000003
0.4665
0.4645
0.461
0.46
0.457
0.4555
0.4535
0.4545
0.4535
0.453
0.45
0.448
0.4485
0.4505
0.4495
0.452
0.4525
0.4525
0.455
0.454
0.4545
0.4545
0.4555
0.4525
0.453
0.45
0.4515
0.4525
0.45
0.4495
0.4485
0.4505
0.447
0.452
0.4485
0.451
0.4515
0.4515
0.4495
0.4515
0.449
0.4525
0.453
0.453
0.4535
0.448
0.45
0.453
0.454
0.448
0.448
0.451
0.45
0.451
0.4515
0.452
0.4505
0.4485
0.4515
0.4535
0.4535
0.4535
0.453
0.455
0.454
0.453
0.4545
0.4565
0.4575
0.456
0.4555
0.4555
0.4565
0.454
0.453
0.4525
0.4515
0.452
0.453
0.4525
0.4535
0.453
0.452
0.4525
0.453
0.454
0.4535
0.451
0.4515
0.453
0.4535
0.4545
0.4535
0.455
0.455
0.4555
0.4565
0.4575
0.456
0.457
0.455
0.4545
0.4575
0.4585
0.4585
0.4605
0.4595
0.4585
0.4585
0.457
0.4575
0.4575
0.46
0.461
0.458
0.46
0.4615
0.4625
0.462
0.4635
0.4685
0.485
0.5175
0.6075
0.8300000000000001
1.0775000000000001
1.1965000000000001
1.1815
1.0845
0.965
0.8575
0.771
0.7045
0.6545
0.634
0.6525
0.718
0.7885
0.8265
0.8140000000000001
0.763
0.7045
0.6495
0.609
0.5725
0.5455
0.5285
0.5115000000000001
0.498
0.4875
0.47950000000000004
0.47300000000000003
0.46900000000000003
0.4675
0.463
0.461
0.4595
0.4585
0.459
0.4575
0.458
0.4555
0.4555
0.455
0.4565
0.4565
0.4555
0.456
0.4555
0.4555
0.4555
0.4555
0.457
0.4555
0.456
0.4545
0.457
0.4555
0.4555
0.4555
0.4555
0.4555
0.4565
0.4565
0.457
0.456
0.4555
0.4545
0.4545
0.455
0.453
0.4535
0.4515
0.451
0.452
0.4535
0.4545
0.455
0.4555
0.458
0.459
0.458
0.458
0.458
0.4585
0.458
0.4595
0.4575
0.4595
0.458
0.4575
0.4575
0.4595
0.4575
0.4595
0.4565
0.455
0.4555
0.4555
0.453
0.454
0.4535
0.452
0.453
0.4545
0.4535
0.456
0.4545
0.454
0.4535
0.454
0.455
0.4535
0.4545
0.4545
0.455
0.4565
0.4565
0.4545
0.455
0.4555
0.4575
0.4585
0.4575
0.4585
0.459
0.4605
0.4605
0.463
0.4615
0.4625
0.4615
0.46
0.461
0.4615
0.4625
0.4625
0.4625
0.4645
0.4625
0.4625
0.4615
0.4625
0.465
0.4615
0.4625
0.4635
0.4625
0.4635
0.465
0.465
0.465
0.465
0.463
0.4615
0.461
0.4605
0.4605
0.46
0.462
0.459
0.4595
0.4595
0.46
0.459
0.4595
0.4625
0.463
0.4655
0.47300000000000003
0.513
0.619
0.7855
1.124
1.431
1.5445
1.4465000000000001
1.2435
1.036
0.913
0.8245
0.79
0.8300000000000001
0.9835
1.1715
1.217
1.117
0.9805
0.8525
0.7505000000000001
0.523
0.47250000000000003
0.458
0.4535
0.4495
0.4485
0.449
0.445
0.442
0.444
0.443
0.4435
0.441
0.4425
0.443
0.439
0.4455
0.4405
0.4415
0.4425
0.442
0.442
0.4415
0.4415
0.4415
0.443
0.4435
0.442
0.4415
0.441
0.442
0.4415
0.443
0.4465
0.4465
0.4475
0.4465
0.447
0.4475
0.4475
0.448
0.4475
0.4475
0.4495
0.45
0.4505
0.451
0.45
0.4485
0.4495
0.4475
0.4495
0.4495
0.4495
0.4495
0.4495
0.45
0.4515
0.45
0.4505
0.4505
0.4495
0.4485
0.4495
0.45
0.446
0.4505
0.4495
0.446
0.4475
0.448
0.449
0.45
0.4495
0.45
0.45
0.451
0.4515
0.451
0.452
0.4515
0.453
0.4505
0.4515
0.451
0.4515
0.4515
0.4525
0.4525
0.4515
0.452
0.453
0.4535
0.455
0.452
0.4515
0.4525
0.452
0.4525
0.453
0.4525
0.452
0.453
0.454
0.454
0.455
0.4565
0.4555
0.457
0.4555
0.455
0.4565
0.457
0.4565
0.456
0.4555
0.455
0.4555
0.4555
0.455
0.455
0.4565
0.456
0.4545
0.4545
0.454
0.4535
0.453
0.4525
0.453
0.4515
0.4525
0.4535
0.453
0.4535
0.454
0.4605
0.5035000000000001
0.5955
0.7215
0.9885
1.2905
1.5190000000000001
1.6175
1.5415
1.3755
1.197
1.042
0.9195
0.8275
0.7865
0.7895
0.8545
0.9550000000000001
1.0295
1.031
0.97
0.881
0.79
0.7155
0.6585
0.6145
0.582
0.5575
0.536
0.5175
0.5015000000000001
0.4875
0.47850000000000004
0.4675
0.4615
0.4575
0.4545
0.451
0.448
0.4465
0.4465
0.445
0.4435
0.4445
0.4435
0.444
0.4425
0.442
0.4425
0.442
0.4415
0.4415
0.4415
0.443
0.4435
0.4425
0.443
0.443
0.442
0.4435
0.442
0.441
0.44
0.443
0.439
0.437
0.438
0.4385
0.4365
0.4365
0.439
0.4375
0.4365
0.4355
0.4385
0.437
0.4365
0.4385
0.4405
0.4395
0.439
0.4395
0.441
0.4365
0.4395
0.4425
0.443
0.443
0.4455
0.445
0.444
0.442
0.4435
0.442
0.4435
0.4435
0.4435
0.4455
0.4455
0.4415
0.443
0.4445
0.4425
0.4445
0.4455
0.441
0.4435
0.445
0.444
0.442
0.445
0.444
0.4465
0.447
0.4435
0.4425
0.4405
0.442
0.4405
0.442
0.445
0.445
0.443
0.4435
0.4415
0.4415
0.441
0.4435
0.446
0.443
0.4395
0.4435
0.4425
0.446
0.443
0.443
0.442
0.4405
0.4415
0.4435
0.4425
0.442
0.4445
0.4425
0.444
0.4415
0.443
0.4455
0.446
0.452
0.4525
0.453
0.457
0.47950000000000004
0.5625
0.6405
0.7995
1.0935
1.3115
1.371
1.294
1.158
1.0175
0.8955000000000001
0.7915
0.7175
0.6615
0.6335000000000001
0.6535
0.718
0.7675000000000001
0.7725
0.7375
0.6835
0.631
0.588
0.5575
0.529
0.509
0.4925
0.481
0.47250000000000003
0.463
0.4585
0.456
0.449
0.4475
0.447
0.445
0.445
0.4455
0.4445
0.4435
0.445
0.4415
0.441
0.4395
0.4395
0.441
0.4375
0.436
0.4375
0.437
0.437
0.437
0.437
0.4375
0.4375
0.4375
0.438
0.4395
0.44
0.437
0.4355
0.4375
0.4365
0.437
0.437
0.4375
0.437
0.438
0.4375
0.4365
0.4365
0.4355
0.4355
0.437
0.4385
0.4385
0.439
0.4385
0.4395
0.4415
0.44
0.441
0.4405
0.441
0.4435
0.4425
0.4415
0.437
0.4395
0.44
0.4395
0.4395
0.439
0.4395
0.4395
0.4385
0.439
0.4395
0.4405
0.4405
0.4385
0.4395
0.44
0.439
0.4395
0.44
0.441
0.4405
0.4405
0.4405
0.4395
0.4415
0.443
0.4415
0.4435
0.444
0.4435
0.4445
0.446
0.446
0.4465
0.4465
0.4475
0.4475
0.4485
0.449
0.448
0.4495
0.4505
0.4495
0.4485
0.447
0.4465
0.447
0.448
0.449
0.449
0.4495
0.4495
0.45
0.4525
0.453
0.452
0.453
0.4555
0.4555
0.4525
0.4535
0.4545
0.4515
0.451
0.4475
0.4485
0.4475
0.449
0.45
0.4515
0.4515
0.451
0.451
0.452
0.453
0.449
0.449
0.448
0.4475
0.448
0.447
0.448
0.447
0.4475
0.4545
0.465
0.4815
0.519
0.668
0.898
1.047
1.0675000000000001
0.983
0.8835000000000001
0.7875
0.7165
0.6595
0.6205
0.5885
0.5815
0.5925
0.6185
0.6375000000000001
0.6365000000000001
0.613
0.5835
0.555
0.5325
0.5125
0.4995
0.4875
0.47900000000000004
0.47050000000000003
0.4635
0.4595
0.4565
0.4545
0.4555
0.4515
0.452
0.4505
0.45
0.451
0.45
0.45
0.4495
0.448
0.449
0.45
0.45
0.4495
0.449
0.45
0.45
0.453
0.4525
0.4535
0.454
0.4535
0.4515
0.452
0.4515
0.451
0.452
0.451
0.4515
0.452
0.4525
0.4515
0.453
0.4535
0.4545
0.4535
0.454
0.4525
0.4535
0.4525
0.45
0.4495
0.449
0.4495
0.45
0.45
0.4515
0.45
0.4515
0.4505
0.451
0.4525
0.451
0.4515
0.4535
0.4525
0.4545
0.4535
0.4535
0.4545
0.4515
0.4515
0.452
0.4505
0.45
0.453
0.4515
0.4515
0.451
0.451
0.451
0.4515
0.4525
0.4535
0.4515
0.453
0.4515
0.4525
0.4545
0.4515
0.4545
0.453
0.455
0.4525
0.4535
0.4525
0.4525
0.4505
0.452
0.4495
0.4475
0.452
0.4485
0.4505
0.4485
0.4485
0.4505
0.4525
0.4535
0.4505
0.4495
0.4485
0.4485
0.4505
0.4515
0.4515
0.4465
0.451
0.449
0.45
0.451
0.4495
0.4515
0.445
0.4475
0.45
0.4515
0.45
0.453
0.4545
0.462
0.5035000000000001
0.5865
0.8225
1.1465
1.322
1.3075
1.1705
0.999
0.863
0.7675000000000001
0.71
0.6995
0.7175
0.787
0.879
0.9285
0.91
0.8475
0.7705
0.7015
0.646
0.603
0.5670000000000001
0.5415
0.521
0.505
0.4915
0.481
0.47300000000000003
0.46950000000000003
0.462
0.4595
0.4575
0.4545
0.452
0.4525
0.4505
0.4485
0.4455
0.4445
0.4435
0.4445
0.444
0.443
0.4425
0.442
0.4415
0.443
0.4415
0.4405
0.4415
0.441
0.441
0.4425
0.442
0.442
0.4425
0.442
0.4415
0.4415
0.4435
0.443
0.442
0.4405
0.443
0.4415
0.4425
0.443
0.441
0.441
0.4425
0.4425
0.4415
0.4415
0.4435
0.44
0.4425
0.444
0.4435
0.4445
0.445
0.4435
0.4445
0.444
0.444
0.4435
0.4435
0.443
0.444
0.4455
0.4465
0.4465
0.446
0.4445
0.443
0.4435
0.4435
0.4435
0.4435
0.4445
0.445
0.4455
0.4445
0.4445
0.4445
0.4435
0.444
0.446
0.4455
0.4435
0.445
0.447
0.4485
0.449
0.45
0.4515
0.4515
0.4525
0.453
0.455
0.4545
0.454
0.453
0.4525
0.451
0.4525
0.4515
0.452
0.452
0.4535
0.455
0.454
0.4555
0.4535
0.4555
0.4565
0.457
0.4565
0.455
0.4555
0.456
0.457
0.4575
0.4575
0.458
0.458
0.4605
0.4595
0.4575
0.4575
0.4575
0.4595
0.4585
0.4585
0.459
0.4565
0.4575
0.4565
0.4555
0.4555
0.4575
0.46
0.461
0.4615
0.4645
0.4675
0.46950000000000003
0.47000000000000003
0.47650000000000003
0.507
0.5735
0.6745
0.8735
1.1715
1.401
1.4545000000000001
1.3665
1.2205
1.0745
0.9490000000000001
0.849
0.779
0.744
0.74
0.783
0.8675
0.9510000000000001
0.97
0.9255
0.8395
0.7585000000000001
0.6905
0.635
0.593
0.5585
0.533
0.5145
0.4975
0.4845
0.47750000000000004
0.47050000000000003
0.463
0.457
0.454
0.454
0.4515
0.4505
0.448
0.4475
0.4495
0.4465
0.4445
0.444
0.445
0.4445
0.4455
0.444
0.443
0.444
0.4455
0.448
0.445
0.4445
0.4445
0.4465
0.4465
0.444
0.4455
0.444
0.446
0.447
0.4445
0.445
0.4415
0.4435
0.4425
0.445
0.4445
0.4445
0.442
0.4415
0.4415
0.4395
0.4395
0.443
0.442
0.444
0.443
0.441
0.445
0.442
0.4415
0.441
0.441
0.4415
0.4415
0.445
0.4415
0.4395
0.4465
0.445
0.442
0.4465
0.45
0.446
0.445
0.443
0.4425
0.445
0.447
0.445
0.4455
0.447
0.4465
0.4475
0.447
0.447
0.4505
0.4485
0.449
0.45
0.4505
0.452
0.45
0.4525
0.4495
0.451
0.4515
0.4515
0.4515
0.451
0.4505
0.4495
0.448
0.448
0.448
0.4485
0.4465
0.447
0.447
0.4485
0.443
0.4475
0.449
0.446
0.446
0.45
0.4495
0.4505
0.4515
0.451
0.4505
0.4505
0.45
0.4485
0.4525
0.451
0.4495
0.45
0.4495
0.452
0.453
0.4545
0.458
0.4875
0.5605
0.6565
0.788
1.0205
1.2655
1.4095
1.4195
1.3135000000000001
1.155
1.0175
0.9005
0.8085
0.745
0.727
0.7475
0.8140000000000001
0.9015
0.963
0.9685
0.916
0.836
0.756
0.6895
0.6355000000000001
0.5945
0.5630000000000001
0.5375
0.516
0.5005000000000001
0.486
0.47600000000000003
0.4675
0.4615
0.46
0.4545
0.451
0.4485
0.4465
0.446
0.4445
0.444
0.4435
0.4435
0.4435
0.4425
0.4435
0.445
0.4445
0.443
0.4435
0.4435
0.442
0.441
0.4425
0.4425
0.4425
0.442
0.443
0.444
0.4435
0.4435
0.443
0.4425
0.4425
0.441
0.4425
0.4405
0.441
0.4405
0.4395
0.4395
0.4395
0.441
0.4415
0.441
0.445
0.443
0.443
0.4435
0.445
0.446
0.4445
0.4445
0.444
0.4455
0.4465
0.446
0.446
0.4465
0.446
0.4465
0.4475
0.4475
0.446
0.446
0.4465
0.4455
0.4455
0.445
0.443
0.4455
0.441
0.443
0.4415
0.4415
0.4425
0.4465
0.444
0.4455
0.4445
0.4455
0.446
0.447
0.4465
0.447
0.4475
0.4485
0.4465
0.448
0.4485
0.448
0.449
0.448
0.4485
0.4475
0.448
0.4505
0.447
0.4485
0.449
0.448
0.4495
0.4475
0.4485
0.4485
0.4505
0.451
0.4515
0.4515
0.452
0.4515
0.4515
0.452
0.4535
0.453
0.4525
0.4515
0.4485
0.45
0.4495
0.449
0.447
0.4465
0.4465
0.45
0.4505
0.45
0.449
0.451
0.4495
0.4475
0.4505
0.4485
0.452
0.4535
0.4555
0.4575
0.466
0.5295
0.6315000000000001
0.751
1.0255
1.3515
1.5295
1.4505000000000001
1.2295
1.0185
0.8375
0.7325
0.6795
0.6910000000000001
0.8275
0.8765000000000001
0.8435
0.774
0.6975
0.6345000000000001
0.5730000000000001
0.5365
0.5115000000000001
0.4875
0.47150000000000003
0.461
0.445
0.435
0.438
0.4365
0.4365
0.4375
0.438
0.4375
0.436
0.441
0.4385
0.4365
0.436
0.439
0.438
0.437
0.437
0.435
0.436
0.4345
0.435
0.4345
0.435
0.436
0.4355
0.4355
0.4345
0.4355
0.437
0.4355
0.436
0.4355
0.4355
0.439
0.437
0.4365
0.438
0.44
0.4405
0.441
0.4425
0.4425
0.442
0.442
0.4435
0.444
0.444
0.4445
0.445
0.4445
0.445
0.444
0.445
0.448
0.4465
0.444
0.4435
0.444
0.4445
0.445
0.4455
0.4465
0.4465
0.446
0.446
0.445
0.4455
0.4465
0.445
0.4455
0.4455
0.446
0.4455
0.446
0.4465
0.445
0.4465
0.4465
0.4465
0.449
0.4475
0.4475
0.446
0.4465
0.447
0.446
0.448
0.4475
0.4465
0.4475
0.4475
0.4485
0.45
0.449
0.4475
0.4465
0.4465
0.446
0.4455
0.4455
0.447
0.447
0.4475
0.4495
0.4485
0.4495
0.45
0.4485
0.449
0.4495
0.448
0.4475
0.4475
0.4485
0.448
0.4475
0.4475
0.4485
0.4475
0.4455
0.4435
0.445
0.442
0.4425
0.442
0.4415
0.4405
0.4405
0.44
0.441
0.447
0.4665
0.4995
0.53
0.642
0.879
1.0735000000000001
1.1295
1.0685
0.9625
0.8565
0.7675000000000001
0.6985
0.652
0.6225
0.605
0.6115
0.6605
0.7145
0.7375
0.722
0.6825
0.6365000000000001
0.5935
0.5595
0.5335
0.513
0.498
0.485
0.47550000000000003
0.468
0.4625
0.455
0.4535
0.4515
0.4495
0.4495
0.4485
0.447
0.4465
0.447
0.4465
0.4455
0.4465
0.4465
0.4445
0.446
0.4455
0.4455
0.446
0.4455
0.445
0.4445
0.4435
0.4425
0.4425
0.4425
0.4415
0.44
0.4405
0.441
0.4385
0.4385
0.4395
0.4415
0.4425
0.443
0.4435
0.4435
0.446
0.4465
0.4465
0.4475
0.445
0.4465
0.4485
0.448
0.4475
0.448
0.447
0.4475
0.4455
0.4465
0.446
0.447
0.4465
0.448
0.4505
0.448
0.4505
0.4495
0.4485
0.448
0.4465
0.449
0.4465
0.4475
0.4455
0.445
0.443
0.4435
0.442
0.4435
0.4445
0.4435
0.4435
0.4455
0.4445
0.4475
0.4475
0.4475
0.4475
0.4495
0.4485
0.4485
0.4505
0.4455
0.4495
0.446
0.4475
0.4475
0.4485
0.445
0.446
0.447
0.4445
0.448
0.447
0.449
0.448
0.4485
0.446
0.4455
0.4455
0.4475
0.453
0.4495
0.449
0.45
0.4495
0.45
0.4495
0.4505
0.4515
0.4525
0.4485
0.445
0.4445
0.446
0.446
0.4485
0.4475
0.4495
0.45
0.459
0.4925
0.5385
0.685
0.9590000000000001
1.2075
1.2875
1.2295
1.101
0.969
0.857
0.7685
0.7015
0.6505
0.6125
0.595
0.607
0.632
0.6395000000000001
0.619
0.589
0.5545
0.529
0.5075000000000001
0.4915
0.4805
0.47300000000000003
0.4665
0.4625
0.456
0.4525
0.451
0.4485
0.4455
0.446
0.445
0.4445
0.444
0.4425
0.4435
0.4435
0.443
0.4425
0.442
0.4415
0.443
0.442
0.4425
0.443
0.442
0.443
0.442
0.4435
0.4435
0.444
0.444
0.4425
0.4415
0.4425
0.4415
0.4415
0.4425
0.4425
0.444
0.4435
0.4435
0.443
0.446
0.445
0.4465
0.4425
0.444
0.4435
0.4435
0.4445
0.4445
0.446
0.4475
0.4485
0.4485
0.4495
0.4505
0.4505
0.451
0.4515
0.4525
0.4535
0.4505
0.4515
0.4515
0.4515
0.452
0.452
0.4525
0.4525
0.4525
0.4515
0.451
0.4515
0.4515
0.4515
0.4535
0.4525
0.4535
0.4525
0.452
0.4525
0.4525
0.454
0.453
0.4525
0.4525
0.4535
0.455
0.455
0.456
0.454
0.4555
0.453
0.454
0.4535
0.453
0.453
0.4535
0.455
0.455
0.4545
0.4545
0.455
0.4545
0.4555
0.4555
0.453
0.4545
0.455
0.4555
0.4555
0.4555
0.4565
0.4555
0.455
0.455
0.4565
0.457
0.4565
0.4555
0.456
0.456
0.455
0.4555
0.4555
0.4565
0.4565
0.4565
0.4565
0.4565
0.456
0.4565
0.4565
0.457
0.4555
0.456
0.458
0.4575
0.459
0.461
0.4625
0.464
0.46900000000000003
0.49
0.5475
0.635
0.765
1.0335
1.3255000000000001
1.4895
1.453
1.3115
1.147
1.0135
0.9165
0.855
0.8270000000000001
0.8175
0.8505
0.9155
0.975
0.976
0.9175
0.833
0.7535000000000001
0.6815
0.6295000000000001
0.5855
0.553
0.5275
0.5065000000000001
0.488
0.47950000000000004
0.47150000000000003
0.462
0.4565
0.4545
0.453
0.4525
0.4485
0.4465
0.445
0.4455
0.4455
0.4435
0.444
0.4435
0.446
0.446
0.4445
0.4435
0.4435
0.4445
0.4435
0.443
0.4445
0.442
0.444
0.4405
0.4425
0.444
0.445
0.4415
0.4415
0.4415
0.4425
0.4395
0.443
0.442
0.4415
0.4405
0.441
0.4445
0.446
0.4415
0.4415
0.4485
0.4445
0.444
0.444
0.4425
0.442
0.4415
0.4415
0.4435
0.443
0.4425
0.442
0.441
0.4405
0.444
0.4445
0.4415
0.4435
0.4425
0.4455
0.446
0.444
0.4455
0.4475
0.447
0.447
0.4475
0.4485
0.45
0.449
0.451
0.452
0.452
0.4515
0.4525
0.4525
0.451
0.4515
0.451
0.451
0.4515
0.4515
0.451
0.451
0.451
0.452
0.452
0.453
0.455
0.453
0.4535
0.4545
0.4545
0.4555
0.4555
0.455
0.4555
0.455
0.4585
0.4555
0.456
0.456
0.4575
0.4595
0.4575
0.4565
0.454
0.4555
0.4555
0.4555
0.4555
0.455
0.455
0.456
0.456
0.457
0.4585
0.457
0.457
0.4565
0.4605
0.4845
0.5615
0.6745
0.8175
1.0755000000000001
1.3665
1.5775000000000001
1.6795
1.603
1.4235
1.2435
1.079
0.9465
0.857
0.8295
0.8675
0.9430000000000001
1.0525
1.1235
1.125
1.0575
0.9575
0.8595
0.7755
0.7095
0.6555
0.6145
0.58
0.5515
0.5275
0.509
0.4945
0.4835
0.47400000000000003
0.4635
0.4595
0.4565
0.4515
0.4485
0.447
0.445
0.4425
0.441
0.4385
0.438
0.4375
0.4355
0.4355
0.4325
0.4335
0.433
0.4345
0.4345
0.436
0.4385
0.4375
0.439
0.44
0.4395
0.44
0.4395
0.441
0.44
0.44
0.4395
0.4385
0.439
0.4385
0.438
0.4395
0.4395
0.4395
0.4395
0.4395
0.4415
0.438
0.4395
0.4365
0.4375
0.4355
0.435
0.4345
0.434
0.4335
0.4345
0.4335
0.434
0.4325
0.4325
0.4335
0.434
0.4335
0.431
0.432
0.433
0.435
0.434
0.434
0.4345
0.435
0.434
0.4335
0.4335
0.433
0.4355
0.4365
0.4355
0.4375
0.4385
0.443
0.44
0.4415
0.4425
0.441
0.44
0.4415
0.443
0.441
0.4395
0.4425
0.4395
0.439
0.4385
0.441
0.4385
0.438
0.438
0.439
0.437
0.438
0.4375
0.439
0.439
0.4405
0.4435
0.4435
0.445
0.4455
0.4485
0.4465
0.4445
0.445
0.4445
0.444
0.4435
0.4435
0.445
0.4455
0.4435
0.4415
0.4435
0.441
0.442
0.4425
0.4425
0.4435
0.4435
0.4435
0.4465
0.442
0.4445
0.445
0.4415
0.4425
0.4405
0.4445
0.4485
0.451
0.4575
0.5355
0.6525
0.7635000000000001
1.0735000000000001
1.4115
1.4805
1.3075
1.0935
0.9025
0.7925
0.723
0.711
0.745
0.841
0.9695
0.9145
0.797
0.6975
0.63
0.5835
0.47900000000000004
0.439
0.4365
0.4345
0.4315
0.4335
0.4345
0.43
0.432
0.432
0.434
0.433
0.4335
0.4345
0.4295
0.43
0.429
0.428
0.4285
0.429
0.4295
0.4305
0.4305
0.43
0.431
0.4285
0.4295
0.4295
0.4305
0.4325
0.4325
0.4335
0.4305
0.431
0.4315
0.4315
0.431
0.4315
0.4315
0.431
0.4315
0.431
0.4325
0.432
0.4325
0.4325
0.4315
0.4335
0.434
0.4355
0.4365
0.437
0.4375
0.4385
0.4385
0.4395
0.4395
0.4395
0.4395
0.441
0.441
0.439
0.4405
0.4405
0.4395
0.4405
0.44
0.4405
0.4415
0.4405
0.441
0.4415
0.441
0.4415
0.441
0.442
0.441
0.4415
0.4415
0.441
0.442
0.442
0.4415
0.4425
0.4435
0.443
0.4435
0.4425
0.4425
0.4435
0.4435
0.4425
0.4425
0.4425
0.4435
0.443
0.4435
0.444
0.444
0.4445
0.4455
0.443
0.4455
0.446
0.4465
0.4455
0.4465
0.447
0.4475
0.447
0.4445
0.444
0.4445
0.443
0.442
0.4425
0.4425
0.442
0.441
0.44
0.4405
0.4405
0.4405
0.441
0.4415
0.442
0.442
0.4415
0.4415
0.4425
0.4415
0.441
0.4405
0.4425
0.4525
0.4835
0.5185
0.579
0.7435
0.9355
1.0405
1.0335
0.9575
0.8605
0.7745
0.705
0.651
0.6115
0.5855
0.5745
0.5945
0.6235
0.6355000000000001
0.623
0.5965
0.5665
0.5385
0.5195
0.5005000000000001
0.4875
0.47600000000000003
0.4675
0.458
0.4545
0.4515
0.4485
0.447
0.4445
0.4445
0.4445
0.4455
0.4465
0.4425
0.441
0.4425
0.442
0.4445
0.4435
0.4435
0.4425
0.4425
0.443
0.442
0.4425
0.4435
0.4435
0.4435
0.4425
0.443
0.4435
0.444
0.4445
0.4445
0.4445
0.442
0.4455
0.444
0.4435
0.4435
0.4435
0.443
0.4435
0.4435
0.443
0.441
0.4415
0.4435
0.441
0.4425
0.4415
0.4415
0.4405
0.4405
0.442
0.439
0.439
0.445
0.443
0.44
0.4435
0.4435
0.4435
0.4445
0.443
0.4475
0.444
0.4425
0.4445
0.4435
0.4435
0.4465
0.4445
0.4455
0.4435
0.446
0.4445
0.447
0.4435
0.447
0.4475
0.445
0.444
0.443
0.4465
0.4455
0.446
0.4465
0.4435
0.4475
0.441
0.4455
0.441
0.4455
0.4455
0.4435
0.4425
0.4415
0.443
0.441
0.4445
0.443
0.444
0.445
0.443
0.445
0.4425
0.4435
0.4455
0.444
0.4465
0.444
0.444
0.445
0.4465
0.4465
0.4445
0.446
0.4455
0.445
0.4455
0.4485
0.4455
0.4455
0.4475
0.449
0.451
0.451
0.453
0.4675
0.516
0.5885
0.73
0.9955
1.2585
1.385
1.3575
1.2335
1.0855000000000001
0.9405
0.8320000000000001
0.746
0.6835
0.6505
0.6385000000000001
0.655
0.6745
0.6815
0.663
0.6295000000000001
0.5935
0.5615
0.537
0.5175
0.5015000000000001
0.4875
0.47950000000000004
0.46900000000000003
0.465
0.4575
0.4515
0.4505
0.4475
0.445
0.4445
0.444
0.442
0.4365
0.439
0.4415
0.4445
0.441
0.441
0.4415
0.441
0.4395
0.438
0.4395
0.44
0.4405
0.4395
0.4405
0.44
0.441
0.442
0.4435
0.4445
0.4455
0.445
0.4455
0.4455
0.4465
0.446
0.4465
0.447
0.447
0.4475
0.446
0.446
0.445
0.4455
0.4435
0.445
0.445
0.4455
0.4455
0.4455
0.447
0.4475
0.448
0.4485
0.4485
0.4475
0.448
0.4475
0.4465
0.446
0.445
0.4455
0.4455
0.4475
0.4485
0.448
0.4485
0.449
0.4495
0.4495
0.449
0.4495
0.4495
0.4515
0.4495
0.4495
0.449
0.45
0.4505
0.45
0.45
0.4505
0.451
0.4505
0.4515
0.451
0.4515
0.451
0.4485
0.45
0.4505
0.451
0.4495
0.4505
0.4515
0.451
0.4515
0.4515
0.452
0.4535
0.4515
0.4515
0.451
0.452
0.452
0.4515
0.4515
0.452
0.453
0.4555
0.4535
0.455
0.4555
0.4565
0.457
0.455
0.456
0.456
0.4555
0.456
0.4555
0.455
0.455
0.4575
0.4565
0.4555
0.4555
0.4555
0.4575
0.453
0.4545
0.4545
0.4535
0.4525
0.4515
0.4515
0.4525
0.4555
0.459
0.4615
0.465
0.47650000000000003
0.5335
0.636
0.7375
0.8845000000000001
1.1375
1.3435000000000001
1.4185
1.3535
1.2045000000000001
1.0475
0.9165
0.8165
0.7455
0.726
0.7645000000000001
0.839
0.9235
0.984
0.9735
0.9085
0.8155
0.7365
0.6685
0.6155
0.5760000000000001
0.5345
0.5125
0.4955
0.484
0.47350000000000003
0.4645
0.4605
0.458
0.454
0.4485
0.4465
0.4475
0.445
0.4425
0.4465
0.447
0.445
0.4415
0.4405
0.4425
0.4415
0.4385
0.4425
0.443
0.4395
0.438
0.438
0.438
0.438
0.4395
0.438
0.4375
0.437
0.436
0.44
0.4375
0.4385
0.4435
0.4435
0.441
0.442
0.4405
0.4405
0.4405
0.441
0.436
0.443
0.4405
0.4415
0.441
0.4415
0.439
0.4425
0.4415
0.441
0.445
0.4435
0.4425
0.4395
0.442
0.442
0.443
0.445
0.445
0.4445
0.4445
0.446
0.447
0.446
0.447
0.447
0.447
0.4475
0.447
0.4475
0.4475
0.4475
0.4485
0.4475
0.4475
0.447
0.4455
0.444
0.445
0.4445
0.4465
0.4465
0.4475
0.4485
0.448
0.4495
0.449
0.45
0.45
0.449
0.449
0.4495
0.4485
0.4495
0.45
0.45
0.4495
0.45
0.45
0.451
0.4505
0.4515
0.45
0.45
0.4505
0.4495
0.4515
0.4515
0.451
0.449
0.4505
0.45
0.4495
0.4485
0.448
0.4475
0.4475
0.4475
0.4485
0.4495
0.451
0.453
0.465
0.506
0.5935
0.6825
0.7905
1.0065
1.2515
1.3755
1.3515
1.2315
1.0845
0.9505
0.841
0.757
0.6990000000000001
0.6825
0.7085
0.7715
0.8515
0.907
0.9015
0.8465
0.762
0.6925
0.6395000000000001
0.5995
0.5695
0.5455
0.5245
0.5055000000000001
0.4905
0.47900000000000004
0.47100000000000003
0.463
0.4585
0.453
0.451
0.4485
0.4465
0.4445
0.4445
0.4445
0.443
0.443
0.4425
0.442
0.4425
0.4425
0.443
0.4425
0.441
0.4415
0.4415
0.442
0.4415
0.441
0.443
0.4425
0.443
0.442
0.4435
0.445
0.4435
0.444
0.4425
0.4425
0.4425
0.443
0.4415
0.439
0.44
0.438
0.4365
0.4365
0.4365
0.4365
0.4395
0.4385
0.4395
0.4425
0.442
0.442
0.441
0.4405
0.4395
0.4385
0.4375
0.438
0.4385
0.4395
0.441
0.442
0.443
0.4435
0.4445
0.445
0.4445
0.4445
0.4455
0.4455
0.4455
0.446
0.4455
0.4455
0.4465
0.4465
0.4465
0.447
0.4475
0.4475
0.449
0.446
0.4475
0.4465
0.4465
0.447
0.4475
0.4475
0.4465
0.4495
0.4485
0.4475
0.4485
0.448
0.447
0.4465
0.4445
0.4475
0.446
0.444
0.447
0.445
0.4445
0.4425
0.4435
0.4465
0.4415
0.442
0.446
0.4455
0.445
0.4435
0.4445
0.447
0.447
0.4445
0.444
0.447
0.4465
0.4475
0.4445
0.445
0.445
0.4465
0.446
0.4475
0.4475
0.449
0.448
0.4465
0.447
0.4465
0.4465
0.4475
0.4515
0.45
0.4475
0.4875
0.5905
0.7125
0.9015
1.22
1.4355
1.3735
1.1885000000000001
1.02
0.8965
0.7935
0.7305
0.7265
0.8385
0.987
1.042
0.981
0.881
0.6455
0.499
0.4675
0.458
0.4515
0.4475
0.444
0.4425
0.44
0.4405
0.435
0.4365
0.4365
0.4355
0.438
0.434
0.4365
0.4355
0.436
0.4355
0.4365
0.4365
0.436
0.4395
0.438
0.4375
0.4385
0.4385
0.4395
0.439
0.4395
0.441
0.4405
0.4405
0.44
0.441
0.4395
0.44
0.4405
0.4405
0.4395
0.4385
0.4385
0.439
0.437
0.436
0.437
0.4355
0.4345
0.4355
0.435
0.435
0.4355
0.4355
0.4345
0.4365
0.4365
0.438
0.4395
0.4385
0.4385
0.438
0.438
0.4375
0.4375
0.437
0.4385
0.439
0.44
0.4415
0.442
0.4435
0.4435
0.444
0.4425
0.4435
0.4435
0.444
0.4435
0.4435
0.444
0.4445
0.4455
0.445
0.445
0.446
0.4475
0.445
0.445
0.4445
0.4445
0.445
0.445
0.446
0.445
0.4455
0.4455
0.4445
0.4445
0.445
0.4455
0.4425
0.443
0.4415
0.4415
0.4395
0.4405
0.4405
0.4405
0.442
0.4435
0.446
0.445
0.4455
0.4455
0.4465
0.446
0.447
0.4465
0.447
0.4465
0.446
0.4425
0.443
0.4425
0.4415
0.441
0.44
0.4395
0.4385
0.4375
0.437
0.436
0.437
0.435
0.4355
0.4345
0.436
0.436
0.4415
0.4595
0.501
0.5855
0.8025
1.075
1.2335
1.2395
1.1445
1.0145
0.8945000000000001
0.7945
0.7235
0.6675
0.6285000000000001
0.6125
0.6265000000000001
0.6585
0.678
0.6715
0.6435
0.608
0.5745
0.5455
0.5215
0.505
0.49
0.47950000000000004
0.47100000000000003
0.4625
0.4575
0.453
0.4515
0.448
0.4465
0.4455
0.4455
0.4445
0.4445
0.4445
0.444
0.444
0.444
0.4425
0.442
0.4415
0.4405
0.4395
0.4385
0.437
0.4375
0.439
0.4405
0.442
0.442
0.4435
0.4455
0.443
0.443
0.4435
0.445
0.4445
0.4435
0.442
0.4445
0.4415
0.444
0.4435
0.4435
0.4425
0.444
0.446
0.4465
0.4445
0.445
0.4455
0.4465
0.4435
0.4445
0.443
0.4455
0.4435
0.445
0.443
0.443
0.443
0.4405
0.4455
0.442
0.4435
0.4405
0.4435
0.4415
0.441
0.4425
0.445
0.4435
0.4485
0.4455
0.445
0.4475
0.4465
0.4475
0.443
0.4455
0.4475
0.4465
0.448
0.445
0.4425
0.4435
0.4435
0.4445
0.4465
0.444
0.4445
0.4435
0.446
0.4475
0.447
0.4455
0.4455
0.446
0.449
0.4505
0.4455
0.4485
0.4465
0.4495
0.4495
0.4485
0.4515
0.45
0.4515
0.4535
0.4515
0.4515
0.451
0.452
0.45
0.446
0.4495
0.447
0.4505
0.4495
0.4475
0.4495
0.446
0.4485
0.4485
0.4505
0.45
0.451
0.4625
0.487
0.523
0.5895
0.7925
1.0555
1.2285
1.2550000000000001
1.1595
1.0295
0.908
0.807
0.7275
0.6665
0.623
0.594
0.5805
0.5740000000000001
0.5695
0.558
0.543
0.5265
0.5095000000000001
0.496
0.4825
0.47450000000000003
0.468
0.463
0.459
0.455
0.451
0.4505
0.4505
0.45
0.45
0.4495
0.449
0.4505
0.4495
0.4485
0.4485
0.4485
0.449
0.4485
0.4485
0.448
0.4495
0.449
0.449
0.449
0.4515
0.4495
0.449
0.449
0.4485
0.4465
0.446
0.443
0.4475
0.445
0.445
0.442
0.4425
0.441
0.442
0.443
0.443
0.4445
0.4455
0.4495
0.447
0.4455
0.4455
0.4455
0.446
0.447
0.4455
0.4455
0.4465
0.446
0.4465
0.4455
0.4475
0.4445
0.445
0.4435
0.4455
0.4445
0.4445
0.447
0.4465
0.447
0.4455
0.447
0.4455
0.4455
0.447
0.448
0.449
0.451
0.4525
0.455
0.4515
0.4515
0.4525
0.4525
0.4525
0.453
0.453
0.4535
0.4535
0.4545
0.454
0.455
0.4545
0.4535
0.454
0.4545
0.4545
0.4545
0.455
0.4545
0.4545
0.4545
0.455
0.4555
0.4545
0.4565
0.4555
0.457
0.4535
0.455
0.455
0.455
0.4555
0.4555
0.4555
0.457
0.4565
0.4555
0.4565
0.456
0.455
0.4555
0.4555
0.4565
0.4565
0.4575
0.4575
0.457
0.457
0.457
0.458
0.46
0.4585
0.458
0.4555
0.4545
0.4525
0.45
0.45
0.4485
0.4475
0.4485
0.4465
0.4475
0.4505
0.4525
0.4545
0.4665
0.5015000000000001
0.5755
0.6635
0.8300000000000001
1.0725
1.2455
1.2755
1.1935
1.067
0.9435
0.8395
0.7615000000000001
0.7055
0.6965
0.7355
0.7835
0.8135
0.8045
0.759
0.6995
0.645
0.599
0.5645
0.539
0.5175
0.4985
0.4865
0.47450000000000003
0.4675
0.4635
0.456
0.4545
0.455
0.4515
0.4505
0.45
0.4475
0.447
0.4505
0.4485
0.447
0.4485
0.4475
0.4465
0.4455
0.443
0.447
0.445
0.445
0.442
0.4445
0.443
0.4475
0.4475
0.4485
0.45
0.449
0.4495
0.4495
0.449
0.447
0.4505
0.446
0.4465
0.4465
0.4465
0.445
0.4455
0.4465
0.442
0.4455
0.445
0.4445
0.442
0.4455
0.4445
0.4445
0.448
0.4465
0.447
0.4425
0.4435
0.4435
0.4435
0.446
0.448
0.449
0.4495
0.45
0.4515
0.453
0.4535
0.4555
0.4535
0.454
0.4545
0.455
0.4535
0.4535
0.4545
0.4545
0.455
0.455
0.4545
0.455
0.4555
0.4555
0.4545
0.4555
0.4555
0.455
0.455
0.4555
0.4555
0.456
0.4555
0.4555
0.455
0.456
0.457
0.4575
0.4565
0.458
0.458
0.458
0.459
0.4595
0.4595
0.459
0.459
0.46
0.4595
0.4585
0.458
0.458
0.462
0.458
0.4595
0.459
0.458
0.4575
0.458
0.4555
0.455
0.455
0.4555
0.455
0.4555
0.4545
0.457
0.4585
0.4605
0.47450000000000003
0.513
0.5715
0.6485
0.8495
1.114
1.3215000000000001
1.3875
1.314
1.175
1.0335
0.9135
0.8155
0.745
0.7195
0.754
0.8435
0.9535
1.0165
1.018
0.96
0.877
0.7925
0.7195
0.6635
0.6215
0.5875
0.5615
0.5385
0.5175
0.5005000000000001
0.4895
0.47850000000000004
0.47100000000000003
0.4665
0.4615
0.4565
0.4535
0.4515
0.4515
0.45
0.449
0.4485
0.4475
0.4475
0.448
0.4475
0.447
0.447
0.4485
0.445
0.4455
0.445
0.445
0.4455
0.447
0.4455
0.4465
0.4465
0.4455
0.4465
0.4485
0.4465
0.4495
0.447
0.447
0.4465
0.446
0.444
0.443
0.4425
0.443
0.4435
0.4445
0.444
0.4475
0.445
0.4455
0.4465
0.4455
0.447
0.4465
0.446
0.444
0.4445
0.4445
0.4435
0.445
0.4445
0.4455
0.447
0.4475
0.448
0.4475
0.4475
0.4485
0.449
0.4495
0.45
0.4495
0.4495
0.45
0.4505
0.45
0.4495
0.4495
0.4485
0.449
0.4465
0.4465
0.4455
0.445
0.4475
0.445
0.444
0.444
0.443
0.445
0.4455
0.4465
0.4445
0.444
0.4445
0.448
0.449
0.449
0.45
0.4505
0.451
0.4505
0.45
0.4525
0.4525
0.4535
0.452
0.453
0.4495
0.451
0.4515
0.451
0.4505
0.449
0.45
0.4495
0.4495
0.451
0.453
0.447
0.4525
0.4465
0.4495
0.4495
0.4495
0.448
0.447
0.4485
0.4465
0.4475
0.4475
0.4485
0.4505
0.4515
0.455
0.4555
0.458
0.46950000000000003
0.5595
0.715
0.9470000000000001
1.2225
1.3645
1.3405
1.219
1.0455
0.895
0.7825
0.7145
0.732
0.833
1.0665
0.6715
0.559
0.517
0.4975
0.4845
0.47300000000000003
0.456
0.4515
0.449
0.4465
0.4445
0.444
0.441
0.4415
0.4385
0.4415
0.442
0.4415
0.442
0.4415
0.4425
0.443
0.443
0.4415
0.4435
0.4435
0.442
0.4405
0.4415
0.4395
0.4385
0.439
0.4395
0.44
0.4415
0.4405
0.445
0.443
0.4435
0.4435
0.4425
0.4445
0.445
0.447
0.447
0.4465
0.445
0.4445
0.4455
0.4445
0.4445
0.445
0.4465
0.4455
0.4455
0.445
0.4485
0.447
0.4455
0.446
0.4465
0.447
0.4465
0.4465
0.4465
0.4485
0.447
0.447
0.446
0.447
0.448
0.4495
0.4455
0.4475
0.4475
0.4465
0.4475
0.4485
0.448
0.4475
0.4495
0.4485
0.4485
0.4485
0.4475
0.448
0.446
0.4485
0.4465
0.4455
0.448
0.4485
0.4465
0.446
0.4465
0.445
0.4445
0.445
0.444
0.4445
0.4435
0.4445
0.4465
0.4475
0.4475
0.4475
0.449
0.4485
0.4495
0.4495
0.45
0.45
0.4515
0.4505
0.451
0.451
0.4515
0.4525
0.453
0.4495
0.4515
0.451
0.4505
0.4505
0.45
0.4495
0.4495
0.448
0.447
0.445
0.445
0.4455
0.4455
0.443
0.4415
0.441
0.4425
0.44
0.4425
0.4435
0.4445
0.4445
0.447
0.4515
0.4805
0.523
0.558
0.659
0.865
1.0355
1.095
1.054
0.9605
0.861
0.7785
0.7125
0.66
0.623
0.6075
0.6205
0.655
0.6910000000000001
0.7020000000000001
0.6795
0.64
0.5995
0.5650000000000001
0.537
0.5155
0.499
0.4875
0.47600000000000003
0.468
0.463
0.458
0.4555
0.4535
0.452
0.4515
0.453
0.4505
0.4485
0.4485
0.4485
0.45
0.447
0.448
0.4475
0.4475
0.447
0.4475
0.4475
0.4485
0.4485
0.4495
0.449
0.4485
0.4485
0.447
0.448
0.447
0.4475
0.4465
0.4475
0.447
0.448
0.448
0.45
0.4495
0.4495
0.4485
0.4485
0.447
0.4475
0.447
0.4465
0.4505
