0.24560546875
0.2451171875
0.24658203125
0.245361328125
0.244873046875
0.24755859375
0.24755859375
0.250244140625
0.2509765625
0.250732421875
0.2509765625
0.251220703125
0.249755859375
0.250732421875
0.252197265625
0.25146484375
0.24072265625
0.23828125
0.238525390625
0.238037109375
0.237060546875
0.23681640625
0.237548828125
0.236328125
0.237548828125
0.23681640625
0.23779296875
0.236572265625
0.237060546875
0.238525390625
0.237060546875
0.23828125
0.238525390625
0.238037109375
0.236572265625
0.236083984375
0.236572265625
0.236083984375
0.234619140625
0.234130859375
0.234130859375
0.2353515625
0.234130859375
0.23486328125
0.235107421875
0.235595703125
0.23681640625
0.237548828125
0.2373046875
0.23779296875
0.23876953125
0.240478515625
0.239990234375
0.2412109375
0.24169921875
0.24267578125
0.243896484375
0.2451171875
0.2451171875
0.245849609375
0.24609375
0.24560546875
0.245849609375
0.246826171875
0.245849609375
0.24462890625
0.2451171875
0.243896484375
0.24560546875
0.242919921875
0.243408203125
0.243408203125
0.24560546875
0.24951171875
0.25146484375
0.251220703125
0.25244140625
0.252197265625
0.2548828125
0.2529296875
0.253662109375
0.253173828125
0.25244140625
0.25146484375
0.25146484375
0.250244140625
0.25048828125
0.250244140625
0.249755859375
0.24951171875
0.248779296875
0.24853515625
0.247802734375
0.248291015625
0.2470703125
0.248779296875
0.2470703125
0.24755859375
0.245849609375
0.246337890625
0.24560546875
0.24609375
0.245361328125
0.244873046875
0.244384765625
0.243896484375
0.2431640625
0.24365234375
0.243896484375
0.2431640625
0.242919921875
0.2431640625
0.243408203125
0.243896484375
0.242919921875
0.242919921875
0.24169921875
0.241455078125
0.24169921875
0.2412109375
0.24072265625
0.240234375
0.241455078125
0.240966796875
0.240234375
0.239501953125
0.23974609375
0.239990234375
0.239501953125
0.2392578125
0.239013671875
0.23876953125
0.238525390625
0.238525390625
0.2392578125
0.23876953125
0.23876953125
0.239013671875
0.23876953125
0.238037109375
0.23876953125
0.238525390625
0.239013671875
0.238525390625
0.239013671875
0.239013671875
0.239013671875
0.238525390625
0.23876953125
0.23876953125
0.238525390625
0.239013671875
0.238525390625
0.238037109375
0.23779296875
0.238037109375
0.238525390625
0.238525390625
0.238525390625
0.238037109375
0.23779296875
0.237060546875
0.237060546875
0.237060546875
0.237548828125
0.237548828125
0.237060546875
0.237060546875
0.2373046875
0.2373046875
0.23779296875
0.238037109375
0.238037109375
0.23876953125
0.23828125
0.239013671875
0.239013671875
0.23974609375
0.23974609375
0.239013671875
0.239501953125
0.23974609375
0.239501953125
0.23974609375
0.23974609375
0.239990234375
0.240234375
0.24072265625
0.24072265625
0.2412109375
0.241455078125
0.242431640625
0.242431640625
0.242431640625
0.24267578125
0.24267578125
0.242919921875
0.242919921875
0.243896484375
0.244384765625
0.244873046875
0.24560546875
0.245849609375
0.245849609375
0.24609375
0.24658203125
0.247314453125
0.247314453125
0.247802734375
0.248779296875
0.248779296875
0.248779296875
0.248779296875
0.248779296875
0.249267578125
0.24853515625
0.248779296875
0.248779296875
0.24853515625
0.248291015625
0.247802734375
0.24755859375
0.246826171875
0.24755859375
0.24755859375
0.246826171875
0.247314453125
0.2470703125
0.247802734375
0.247802734375
0.247314453125
0.24755859375
0.24755859375
0.248046875
0.247314453125
0.24658203125
0.24853515625
0.247802734375
0.246337890625
0.24755859375
0.247802734375
0.24755859375
0.24658203125
0.2470703125
0.246337890625
0.24560546875
0.245849609375
0.2451171875
0.244873046875
0.244873046875
0.243896484375
0.243896484375
0.242919921875
0.243408203125
0.243408203125
0.243408203125
0.24365234375
0.24365234375
0.243408203125
0.242919921875
0.241943359375
0.241943359375
0.24365234375
0.242431640625
0.241943359375
0.24169921875
0.242919921875
0.244384765625
0.243896484375
0.242919921875
0.2431640625
0.243408203125
0.242431640625
0.24072265625
0.239501953125
0.240234375
0.23828125
0.239013671875
0.238037109375
0.236572265625
0.2373046875
0.237060546875
0.23681640625
0.23486328125
0.23486328125
0.23486328125
0.234619140625
0.234619140625
0.234375
0.232666015625
0.23291015625
0.234130859375
0.2333984375
0.23388671875
0.23388671875
0.234130859375
0.234375
0.23486328125
0.234130859375
0.234130859375
0.235595703125
0.235107421875
0.236572265625
0.236083984375
0.236083984375
0.236328125
0.23583984375
0.236572265625
0.236328125
0.236572265625
0.236572265625
0.236083984375
0.236572265625
0.236083984375
0.235595703125
0.236572265625
0.236083984375
0.23583984375
0.235107421875
0.235595703125
0.235107421875
0.2353515625
0.2353515625
0.23583984375
0.236083984375
0.236083984375
0.236572265625
0.236328125
0.237060546875
0.2373046875
0.2373046875
0.237548828125
0.23779296875
0.238037109375
0.23779296875
0.23876953125
0.2373046875
0.238037109375
0.239013671875
0.238037109375
0.23876953125
0.239013671875
0.239013671875
0.23876953125
0.240234375
0.240234375
0.24072265625
0.241943359375
0.240966796875
0.2412109375
0.239990234375
0.240234375
0.239990234375
0.240478515625
0.239990234375
0.240478515625
0.2392578125
0.23974609375
0.239501953125
0.240478515625
0.240966796875
0.239990234375
0.240234375
0.240234375
0.240966796875
0.240478515625
0.240478515625
0.24072265625
0.239990234375
0.23974609375
0.23876953125
0.23974609375
0.23974609375
0.240478515625
0.2412109375
0.2412109375
0.24267578125
0.241455078125
0.24072265625
0.241943359375
0.241943359375
0.241455078125
0.242431640625
0.241455078125
0.241455078125
0.24267578125
0.240478515625
0.241455078125
0.239501953125
0.2392578125
0.237060546875
0.235107421875
0.23486328125
0.23388671875
0.232666015625
0.23193359375
0.23095703125
0.228759765625
0.22998046875
0.230224609375
0.229736328125
0.23046875
0.22900390625
0.228759765625
0.228271484375
0.228271484375
0.228759765625
0.228271484375
0.22802734375
0.227783203125
0.227294921875
0.227783203125
0.228271484375
0.228271484375
0.2294921875
0.2294921875
0.229736328125
0.230224609375
0.230712890625
0.230712890625
0.23095703125
0.231689453125
0.231689453125
0.231201171875
0.232177734375
0.232421875
0.23193359375
0.232177734375
0.23291015625
0.2333984375
0.2333984375
0.232421875
0.233642578125
0.234130859375
0.2353515625
0.235107421875
0.234619140625
0.23486328125
0.235107421875
0.235107421875
0.234619140625
0.236572265625
0.237060546875
0.237548828125
0.238525390625
0.239013671875
0.239013671875
0.239990234375
0.240478515625
0.241455078125
0.2421875
0.243408203125
0.243896484375
0.244140625
0.243896484375
0.244140625
0.244384765625
0.244140625
0.24462890625
0.24462890625
0.244384765625
0.24462890625
0.244873046875
0.24560546875
0.24560546875
0.245849609375
0.24560546875
0.24609375
0.24658203125
0.246337890625
0.24658203125
0.246337890625
0.245849609375
0.246337890625
0.245361328125
0.245849609375
0.246337890625
0.245849609375
0.24560546875
0.245361328125
0.2451171875
0.245361328125
0.244873046875
0.244873046875
0.24560546875
0.244873046875
0.2451171875
0.245361328125
0.245849609375
0.245849609375
0.245849609375
0.245849609375
0.245361328125
0.244384765625
0.243896484375
0.243896484375
0.243408203125
0.242431640625
0.242431640625
0.24169921875
0.241943359375
0.241455078125
0.24169921875
0.240966796875
0.24072265625
0.238525390625
0.238037109375
0.239013671875
0.237548828125
0.237060546875
0.235595703125
0.23583984375
0.235595703125
0.236572265625
0.236328125
0.23681640625
0.236083984375
0.237060546875
0.2373046875
0.238037109375
0.238037109375
0.239013671875
0.2392578125
0.239013671875
0.239501953125
0.240234375
0.24072265625
0.24072265625
0.239990234375
0.24072265625
0.24169921875
0.2421875
0.241455078125
0.241943359375
0.24267578125
0.24267578125
0.242431640625
0.24169921875
0.242431640625
0.2451171875
0.24560546875
0.243408203125
0.242919921875
0.24365234375
0.2412109375
0.242431640625
0.241943359375
0.243408203125
0.24365234375
0.244384765625
0.242919921875
0.243896484375
0.242919921875
0.242919921875
0.242431640625
0.243408203125
0.241943359375
0.2431640625
0.242919921875
0.242919921875
0.242431640625
0.241943359375
0.2412109375
0.241455078125
0.2412109375
0.241455078125
0.24169921875
0.241943359375
0.24267578125
0.242431640625
0.24267578125
0.2431640625
0.242431640625
0.24267578125
0.2421875
0.241943359375
0.242431640625
0.2431640625
0.242919921875
0.243408203125
0.242431640625
0.24169921875
0.240966796875
0.240478515625
0.239990234375
0.23974609375
0.23974609375
0.2392578125
0.23876953125
0.238037109375
0.237548828125
0.23681640625
0.237060546875
0.23681640625
0.236083984375
0.2353515625
0.235595703125
0.23583984375
0.236328125
0.2353515625
0.236083984375
0.23681640625
0.2373046875
0.237060546875
0.23779296875
0.238525390625
0.239501953125
0.239501953125
0.239990234375
0.240478515625
0.239990234375
0.240966796875
0.240966796875
0.241455078125
0.240966796875
0.24072265625
0.240966796875
0.240966796875
0.2412109375
0.2421875
0.241943359375
0.241943359375
0.24169921875
0.241943359375
0.242431640625
0.242431640625
0.242919921875
0.243408203125
0.243896484375
0.244384765625
0.24462890625
0.244873046875
0.245849609375
0.245849609375
0.24560546875
0.24658203125
0.245849609375
0.2451171875
0.245361328125
0.2451171875
0.2451171875
0.244873046875
0.24462890625
0.24365234375
0.24462890625
0.24462890625
0.244873046875
0.244873046875
0.2451171875
0.245361328125
0.2451171875
0.244873046875
0.245361328125
0.245361328125
0.2451171875
0.2451171875
0.24462890625
0.244384765625
0.245849609375
0.24560546875
0.2451171875
0.2451171875
0.245849609375
0.245361328125
0.244873046875
0.244873046875
0.24462890625
0.24365234375
0.242431640625
0.242431640625
0.241943359375
0.240478515625
0.240966796875
0.24267578125
0.241943359375
0.240234375
0.240478515625
0.239990234375
0.239990234375
0.23974609375
0.240234375
0.240478515625
0.2392578125
0.238525390625
0.23779296875
0.23681640625
0.237060546875
0.238037109375
0.236083984375
0.23681640625
0.2353515625
0.2353515625
0.23486328125
0.23486328125
0.235107421875
0.23486328125
0.23583984375
0.23583984375
0.2373046875
0.237548828125
0.236572265625
0.238037109375
0.23828125
0.238525390625
0.241455078125
0.241455078125
0.2412109375
0.2412109375
0.241455078125
0.2412109375
0.240966796875
0.240478515625
0.24072265625
0.240478515625
0.24072265625
0.2412109375
0.241455078125
0.24169921875
0.2421875
0.24267578125
0.241943359375
0.2421875
0.24267578125
0.241943359375
0.241943359375
0.24267578125
0.242431640625
0.242431640625
0.241943359375
0.24169921875
0.240966796875
0.2412109375
0.24072265625
0.240478515625
0.239990234375
0.239990234375
0.239990234375
0.239990234375
0.23974609375
0.239013671875
0.23876953125
0.238525390625
0.238037109375
0.238037109375
0.238037109375
0.23779296875
0.23779296875
0.238037109375
0.239013671875
0.23876953125
0.239013671875
0.23974609375
0.239990234375
0.23974609375
0.23974609375
0.239501953125
0.2412109375
0.2421875
0.241455078125
0.242431640625
0.243408203125
0.243896484375
0.244140625
0.244384765625
0.24462890625
0.244140625
0.244384765625
0.244384765625
0.244384765625
0.244140625
0.243408203125
0.243408203125
0.24267578125
0.2421875
0.241455078125
0.240478515625
0.240478515625
0.239990234375
0.240478515625
0.239501953125
0.2392578125
0.239501953125
0.239013671875
0.239013671875
0.239013671875
0.239501953125
0.2392578125
0.239501953125
0.239501953125
0.239501953125
0.238525390625
0.23828125
0.23828125
0.239013671875
0.23876953125
0.238525390625
0.238037109375
0.23974609375
0.239013671875
0.239501953125
0.239501953125
0.239013671875
0.239990234375
0.238525390625
0.2392578125
0.239990234375
0.24169921875
0.242431640625
0.24365234375
0.24365234375
0.24365234375
0.243408203125
0.244140625
0.243408203125
0.244873046875
0.242919921875
0.2431640625
0.242919921875
0.2421875
0.242431640625
0.24267578125
0.242919921875
0.24169921875
0.240478515625
0.2421875
0.240966796875
0.241455078125
0.24267578125
0.24169921875
0.241943359375
0.2421875
0.242919921875
0.242919921875
0.24365234375
0.24365234375
0.243408203125
0.2431640625
0.241455078125
0.243408203125
0.2431640625
0.2431640625
0.24560546875
0.24755859375
0.246826171875
0.24658203125
0.244384765625
0.24462890625
0.24365234375
0.244384765625
0.24267578125
0.242431640625
0.241943359375
0.2412109375
0.24267578125
0.24072265625
0.24072265625
0.240966796875
0.241455078125
0.241943359375
0.2421875
0.24169921875
0.24072265625
0.240234375
0.239013671875
0.239501953125
0.23779296875
0.237548828125
0.23779296875
0.236572265625
0.23583984375
0.23486328125
0.234130859375
0.233154296875
0.232177734375
0.231689453125
0.23193359375
0.2314453125
0.231689453125
0.231689453125
0.231201171875
0.23095703125
0.231201171875
0.2314453125
0.231689453125
0.230712890625
0.231201171875
0.232177734375
0.232177734375
0.232177734375
0.232177734375
0.232666015625
0.233154296875
0.233154296875
0.233642578125
0.233642578125
0.234130859375
0.23486328125
0.23583984375
0.236083984375
0.237060546875
0.237548828125
0.238037109375
0.239013671875
0.239013671875
0.240478515625
0.240234375
0.240966796875
0.240966796875
0.241455078125
0.24267578125
0.242431640625
0.243408203125
0.243408203125
0.244384765625
0.24365234375
0.24365234375
0.24462890625
0.24462890625
0.245849609375
0.24560546875
0.246337890625
0.247314453125
0.247314453125
0.2470703125
0.247314453125
0.247314453125
0.24755859375
0.247314453125
0.247802734375
0.24755859375
0.247802734375
0.247802734375
0.24853515625
0.248779296875
0.248779296875
0.248779296875
0.24853515625
0.2490234375
0.248291015625
0.249267578125
0.249267578125
0.24951171875
0.249267578125
0.249755859375
0.250244140625
0.2509765625
0.25048828125
0.25048828125
0.25146484375
0.25146484375
0.251708984375
0.25146484375
0.251220703125
0.25146484375
0.249755859375
0.247802734375
0.245849609375
0.243408203125
0.240234375
0.237060546875
0.2353515625
0.232666015625
0.22998046875
0.2275390625
0.2255859375
0.2236328125
0.22216796875
0.220947265625
0.219482421875
0.218505859375
0.218017578125
0.217529296875
0.217529296875
0.21728515625
0.216796875
0.216552734375
0.216552734375
0.217041015625
0.217529296875
0.21826171875
0.218017578125
0.219482421875
0.2197265625
0.220703125
0.220947265625
0.221435546875
0.222412109375
0.2236328125
0.224853515625
0.226318359375
0.227783203125
0.229248046875
0.229736328125
0.230712890625
0.232666015625
0.23291015625
0.23388671875
0.234619140625
0.235595703125
0.236328125
0.236572265625
0.238037109375
0.23828125
0.239013671875
0.23974609375
0.240966796875
0.2412109375
0.2412109375
0.2421875
0.241455078125
0.241943359375
0.241943359375
0.242919921875
0.24267578125
0.243408203125
0.243408203125
0.244140625
0.244873046875
0.244384765625
0.244384765625
0.24462890625
0.243896484375
0.244140625
0.2451171875
0.243896484375
0.24365234375
0.243408203125
0.243408203125
0.24365234375
0.242919921875
0.24169921875
0.240234375
0.23974609375
0.239013671875
0.239990234375
0.23876953125
0.239013671875
0.239013671875
0.238525390625
0.237060546875
0.237548828125
0.23876953125
0.241943359375
0.2421875
0.242919921875
0.244140625
0.246337890625
0.247802734375
0.25
0.25146484375
0.25341796875
0.253662109375
0.2548828125
0.255859375
0.25634765625
0.255615234375
0.2568359375
0.2568359375
0.256591796875
0.257568359375
0.259521484375
0.259765625
0.2587890625
0.26025390625
0.26025390625
0.25927734375
0.25927734375
0.26123046875
0.26123046875
0.26025390625
0.260009765625
0.258544921875
0.259033203125
0.258056640625
0.25830078125
0.25927734375
0.259765625
0.26171875
0.2607421875
0.259521484375
0.260009765625
0.259521484375
0.2587890625
0.25830078125
0.257568359375
0.257568359375
0.257080078125
0.256103515625
0.257080078125
0.256103515625
0.255615234375
0.255859375
0.255126953125
0.2548828125
0.255859375
0.254638671875
0.254150390625
0.25390625
0.253662109375
0.25341796875
0.252685546875
0.253173828125
0.252197265625
0.252197265625
0.252197265625
0.252685546875
0.251953125
0.252197265625
0.251953125
0.252197265625
0.2529296875
0.251220703125
0.25048828125
0.250732421875
0.251220703125
0.250244140625
0.25048828125
0.25
0.250244140625
0.250244140625
0.25
0.24951171875
0.2490234375
0.249267578125
0.248046875
0.24755859375
0.246337890625
0.24609375
0.245361328125
0.244384765625
0.244140625
0.242919921875
0.24267578125
0.241943359375
0.24169921875
0.240966796875
0.240966796875
0.240966796875
0.241943359375
0.241455078125
0.240966796875
0.241455078125
0.2412109375
0.241943359375
0.241943359375
0.243408203125
0.242919921875
0.243408203125
0.2431640625
0.24365234375
0.243896484375
0.244140625
0.244140625
0.2451171875
0.245361328125
0.245361328125
0.246337890625
0.247314453125
0.248046875
0.248779296875
0.2490234375
0.248779296875
0.249267578125
0.24951171875
0.2490234375
0.249267578125
0.24951171875
0.249755859375
0.251220703125
0.25146484375
0.251953125
0.251953125
0.252685546875
0.252197265625
0.252685546875
0.253173828125
0.25341796875
0.25341796875
0.253662109375
0.253662109375
0.253662109375
0.253662109375
0.252685546875
0.253173828125
0.252685546875
0.253662109375
0.253662109375
0.2548828125
0.255615234375
0.25634765625
0.2578125
0.258544921875
0.2578125
0.25830078125
0.257080078125
0.257568359375
0.257080078125
0.256591796875
0.25634765625
0.255859375
0.256103515625
0.255615234375
0.255126953125
0.254150390625
0.255126953125
0.254150390625
0.254150390625
0.25341796875
0.254150390625
0.253173828125
0.253173828125
0.253662109375
0.253173828125
0.2529296875
0.253173828125
0.253662109375
0.253173828125
0.25390625
0.253662109375
0.2548828125
0.255615234375
0.255126953125
0.256103515625
0.25634765625
0.257080078125
0.25732421875
0.258056640625
0.2587890625
0.258056640625
0.258544921875
0.2578125
0.257568359375
0.258544921875
0.257568359375
0.25732421875
0.258056640625
0.257568359375
0.2568359375
0.2568359375
0.255126953125
0.255859375
0.25439453125
0.253662109375
0.25341796875
0.253662109375
0.253173828125
0.254150390625
0.253662109375
0.25341796875
0.253662109375
0.2548828125
0.253662109375
0.25341796875
0.253662109375
0.2529296875
0.254638671875
0.252685546875
0.251708984375
0.25
0.25244140625
0.251708984375
0.25341796875
0.2529296875
0.253662109375
0.252197265625
0.252685546875
0.253173828125
0.251708984375
0.251220703125
0.252197265625
0.252197265625
0.25146484375
0.25048828125
0.25146484375
0.2509765625
0.2509765625
0.25
0.248046875
0.248291015625
0.24755859375
0.24755859375
0.2470703125
0.24755859375
0.247802734375
0.24658203125
0.24609375
0.2451171875
0.245849609375
0.246337890625
0.2451171875
0.245849609375
0.2470703125
0.246337890625
0.241455078125
0.239013671875
0.23681640625
0.2353515625
0.23486328125
0.23486328125
0.23388671875
0.2333984375
0.232421875
0.232666015625
0.23291015625
0.233642578125
0.232177734375
0.23291015625
0.23291015625
0.231201171875
0.2314453125
0.230712890625
0.23095703125
0.231201171875
0.23095703125
0.23046875
0.23095703125
0.22998046875
0.229736328125
0.229736328125
0.228759765625
0.2294921875
0.229248046875
0.22900390625
0.22998046875
0.22998046875
0.230712890625
0.231201171875
0.231201171875
0.232421875
0.233154296875
0.234130859375
0.234130859375
0.23486328125
0.234619140625
0.2353515625
0.235107421875
0.23486328125
0.234619140625
0.234619140625
0.235107421875
0.234130859375
0.235107421875
0.234619140625
0.234130859375
0.23486328125
0.234130859375
0.234130859375
0.234619140625
0.234375
0.23583984375
0.236083984375
0.237060546875
0.238525390625
0.239013671875
0.240478515625
0.239990234375
0.24169921875
0.241455078125
0.241943359375
0.24169921875
0.24169921875
0.24169921875
0.241943359375
0.243408203125
0.243408203125
0.244384765625
0.244873046875
0.24462890625
0.24462890625
0.244384765625
0.24462890625
0.2451171875
0.245361328125
0.24609375
0.245849609375
0.24609375
0.247314453125
0.24658203125
0.247802734375
0.247314453125
0.247314453125
0.247802734375
0.248291015625
0.248779296875
0.24951171875
0.25
0.25146484375
0.251708984375
0.2529296875
0.2529296875
0.25390625
0.253662109375
0.253662109375
0.25439453125
0.2548828125
0.255126953125
0.2568359375
0.25634765625
0.257568359375
0.258056640625
0.2587890625
0.25927734375
0.259521484375
0.260009765625
0.26123046875
0.261962890625
0.261474609375
0.260986328125
0.260986328125
0.26123046875
0.261474609375
0.26123046875
0.260498046875
0.260498046875
0.260498046875
0.259521484375
0.259521484375
0.259521484375
0.25830078125
0.258056640625
0.2587890625
0.2587890625
0.25927734375
0.259521484375
0.259765625
0.259521484375
0.258544921875
0.257568359375
0.257080078125
0.257568359375
0.25732421875
0.257080078125
0.256591796875
0.25634765625
0.257568359375
0.258056640625
0.258544921875
0.257568359375
0.257080078125
0.256103515625
0.255859375
0.255615234375
0.254638671875
0.2548828125
0.254150390625
0.253173828125
0.2529296875
0.2509765625
0.249755859375
0.24853515625
0.248046875
0.247802734375
0.245849609375
0.2451171875
0.243896484375
0.241455078125
0.241943359375
0.242919921875
0.2412109375
0.241943359375
0.241455078125
0.2421875
0.2412109375
0.240966796875
0.240966796875
0.2412109375
0.239990234375
0.240478515625
0.240234375
0.239990234375
0.23974609375
0.240478515625
0.239501953125
0.24072265625
0.23974609375
0.239990234375
0.2412109375
0.241455078125
0.241455078125
0.241455078125
0.241943359375
0.24267578125
0.2431640625
0.242431640625
0.241943359375
0.241455078125
0.241455078125
0.240478515625
0.238037109375
0.23779296875
0.2373046875
0.235595703125
0.234130859375
0.230224609375
0.229248046875
0.22705078125
0.22412109375
0.222900390625
0.219970703125
0.216796875
0.213623046875
0.21044921875
0.207763671875
0.203857421875
0.202392578125
0.19970703125
0.200927734375
0.1982421875
0.197998046875
0.196044921875
0.196044921875
0.19580078125
0.196044921875
0.197998046875
0.19970703125
0.200927734375
0.200439453125
0.200927734375
0.201904296875
0.204345703125
0.21728515625
0.22412109375
0.2275390625
0.2294921875
0.234619140625
0.238525390625
0.240966796875
0.242919921875
0.244140625
0.2470703125
0.249755859375
0.252197265625
0.253662109375
0.255126953125
0.25927734375
0.25927734375
0.259033203125
0.257080078125
0.255615234375
0.255126953125
0.254638671875
0.254150390625
0.25341796875
0.25244140625
0.252197265625
0.251220703125
0.2509765625
0.25146484375
0.2529296875
0.255615234375
0.257568359375
0.25927734375
0.259521484375
0.260986328125
0.260009765625
0.259521484375
0.258056640625
0.257080078125
0.254638671875
0.252685546875
0.25048828125
0.246826171875
0.242919921875
0.240234375
0.238037109375
0.23583984375
0.232666015625
0.231201171875
0.231689453125
0.2314453125
0.232421875
0.233154296875
0.23388671875
0.2353515625
0.236572265625
0.238037109375
0.23876953125
0.239990234375
0.241943359375
0.244384765625
0.246826171875
0.25
0.251708984375
0.252685546875
0.256103515625
0.25732421875
0.25830078125
0.259765625
0.2607421875
0.261962890625
0.262451171875
0.2646484375
0.263916015625
0.26416015625
0.263916015625
0.263427734375
0.2626953125
0.263427734375
0.26123046875
0.26123046875
0.26123046875
0.2607421875
0.2607421875
0.260009765625
0.259521484375
0.2587890625
0.258056640625
0.25732421875
0.2568359375
0.255615234375
0.255126953125
0.254638671875
0.254638671875
0.255126953125
0.255615234375
0.25634765625
0.256103515625
0.256591796875
0.256591796875
0.256591796875
0.25634765625
0.255615234375
0.256103515625
0.255615234375
0.255126953125
0.254150390625
0.25390625
0.25341796875
0.251708984375
0.25
0.247802734375
0.24658203125
0.244873046875
0.24169921875
0.24072265625
0.238037109375
0.2373046875
0.23681640625
0.2353515625
0.234130859375
0.232177734375
0.228759765625
0.2294921875
0.229248046875
0.228759765625
0.22607421875
0.221923828125
0.218505859375
0.217529296875
0.213623046875
0.21240234375
0.21044921875
0.209716796875
0.20947265625
0.20703125
0.20751953125
0.2060546875
0.205810546875
0.205810546875
0.20556640625
0.20654296875
0.20556640625
0.20556640625
0.2080078125
0.206787109375
0.20703125
0.206787109375
0.210693359375
0.21533203125
0.21875
0.220947265625
0.2236328125
0.227783203125
0.22998046875
0.232666015625
0.236083984375
0.240234375
0.24072265625
0.244873046875
0.24755859375
0.25244140625
0.255615234375
0.258056640625
0.260009765625
0.260986328125
0.260986328125
0.26025390625
0.260009765625
0.25927734375
0.258056640625
0.257568359375
0.25732421875
0.2578125
0.257568359375
0.25830078125
0.25830078125
0.25830078125
0.25830078125
0.259033203125
0.259033203125
0.25830078125
0.257568359375
0.2587890625
0.25927734375
0.260498046875
0.261962890625
0.262939453125
0.263916015625
0.265380859375
0.266357421875
0.26708984375
0.267578125
0.267333984375
0.265380859375
0.26416015625
0.262939453125
0.261474609375
0.260498046875
0.259033203125
0.257568359375
0.2568359375
0.25537109375
0.255126953125
0.254638671875
0.252685546875
0.251708984375
0.2509765625
0.250244140625
0.249755859375
0.249755859375
0.2490234375
0.247314453125
0.245361328125
0.241943359375
0.238525390625
0.236572265625
0.233154296875
0.230224609375
0.2275390625
0.224853515625
0.22216796875
0.218994140625
0.216064453125
0.214111328125
0.212158203125
0.20947265625
0.2080078125
0.205810546875
0.204833984375
0.20458984375
0.20361328125
0.2021484375
0.20166015625
0.200439453125
0.199951171875
0.198486328125
0.198974609375
0.199951171875
0.200439453125
0.19970703125
0.202392578125
0.203857421875
0.2060546875
0.20849609375
0.21044921875
0.213623046875
0.2158203125
0.21923828125
0.22314453125
0.226806640625
0.229736328125
0.23291015625
0.236572265625
0.239501953125
0.240966796875
0.242919921875
0.244873046875
0.245849609375
0.247802734375
0.249267578125
0.251220703125
0.25390625
0.253662109375
0.25390625
0.255126953125
0.254638671875
0.254638671875
0.25439453125
0.25634765625
0.259033203125
0.258544921875
0.261962890625
0.26318359375
0.265380859375
0.266357421875
0.265380859375
0.268310546875
0.267578125
0.266845703125
0.26513671875
0.263427734375
0.262939453125
0.26171875
0.26171875
0.260986328125
0.260498046875
0.259521484375
0.258544921875
0.25732421875
0.255615234375
0.252685546875
0.25341796875
0.2509765625
0.25
0.24951171875
0.249267578125
0.249755859375
0.2490234375
0.2470703125
0.244873046875
0.24560546875
0.2421875
0.24365234375
0.2451171875
0.247802734375
0.248291015625
0.24853515625
0.248291015625
0.24755859375
0.24853515625
0.2490234375
0.249755859375
0.250732421875
0.25244140625
0.251953125
0.252685546875
0.25244140625
0.25439453125
0.254150390625
0.255126953125
0.2548828125
0.254638671875
0.254638671875
0.25439453125
0.2529296875
0.2529296875
0.25244140625
0.250732421875
0.2490234375
0.24755859375
0.246826171875
0.246337890625
0.24365234375
0.241943359375
0.23974609375
0.238525390625
0.2353515625
0.234130859375
0.232177734375
0.23046875
0.22998046875
0.229248046875
0.228759765625
0.227783203125
0.228271484375
0.22802734375
0.2275390625
0.228271484375
0.22900390625
0.2294921875
0.23095703125
0.232421875
0.232177734375
0.233154296875
0.232666015625
0.232666015625
0.230224609375
0.22802734375
0.22607421875
0.22412109375
0.222412109375
0.221923828125
0.220458984375
0.220458984375
0.219970703125
0.220458984375
0.22119140625
0.220947265625
0.22216796875
0.22314453125
0.22412109375
0.225341796875
0.226806640625
0.228759765625
0.228759765625
0.23046875
0.232666015625
0.23486328125
0.237060546875
0.239013671875
0.241943359375
0.242431640625
0.243408203125
0.243896484375
0.244873046875
0.24658203125
0.249755859375
0.253662109375
0.25634765625
0.25830078125
0.260498046875
0.26123046875
0.261474609375
0.26220703125
0.262939453125
0.263427734375
0.263427734375
0.263916015625
0.263671875
0.263916015625
0.263916015625
0.26513671875
0.26611328125
0.266845703125
0.26708984375
0.26708984375
0.267822265625
0.267822265625
0.26904296875
0.269287109375
0.269775390625
0.269287109375
0.27001953125
0.2705078125
0.271728515625
0.271728515625
0.2724609375
0.27392578125
0.27294921875
0.272216796875
0.2724609375
0.27197265625
0.272216796875
0.270263671875
0.269287109375
0.26806640625
0.2666015625
0.266357421875
0.265380859375
0.265869140625
0.263916015625
0.263671875
0.262939453125
0.263671875
0.262451171875
0.26220703125
0.262451171875
0.260986328125
0.2607421875
0.26123046875
0.259521484375
0.258544921875
0.257568359375
0.25830078125
0.2568359375
0.2568359375
0.256103515625
0.257568359375
0.2548828125
0.25341796875
0.2529296875
0.252197265625
0.249755859375
0.24853515625
0.247314453125
0.24560546875
0.243896484375
0.241455078125
0.23974609375
0.2392578125
0.23779296875
0.238037109375
0.23876953125
0.238037109375
0.237060546875
0.23779296875
0.238037109375
0.238037109375
0.23681640625
0.23681640625
0.235107421875
0.234375
0.235107421875
0.2353515625
0.234619140625
0.23583984375
0.23681640625
0.236083984375
0.238037109375
0.239990234375
0.239990234375
0.24169921875
0.243408203125
0.2451171875
0.24365234375
0.24609375
0.247802734375
0.249267578125
0.249755859375
0.249755859375
0.2509765625
0.251708984375
0.251708984375
0.25048828125
0.25146484375
0.251708984375
0.25146484375
0.252197265625
0.25146484375
0.249267578125
0.247314453125
0.244384765625
0.244140625
0.244384765625
0.24267578125
0.24169921875
0.240966796875
0.241943359375
0.240966796875
0.240966796875
0.241943359375
0.242919921875
0.243408203125
0.244873046875
0.246826171875
0.247802734375
0.25
0.249755859375
0.25048828125
0.251708984375
0.25341796875
0.25439453125
0.256591796875
0.25732421875
0.258056640625
0.260009765625
0.26123046875
0.263427734375
0.263916015625
0.26513671875
0.265869140625
0.267333984375
0.267822265625
0.2685546875
0.269775390625
0.270263671875
0.270751953125
0.27197265625
0.272216796875
0.27294921875
0.273681640625
0.274169921875
0.274169921875
0.275390625
0.27587890625
0.277099609375
0.27734375
0.2783203125
0.2783203125
0.279052734375
0.279541015625
0.27978515625
0.279541015625
0.280029296875
0.279541015625
0.27880859375
0.278564453125
0.278076171875
0.278076171875
0.278076171875
0.277587890625
0.277099609375
0.278076171875
0.27685546875
0.2763671875
0.276611328125
0.276123046875
0.276123046875
0.275634765625
0.274658203125
0.275390625
0.274169921875
0.274658203125
0.27392578125
0.273193359375
0.2734375
0.273681640625
0.27392578125
0.273193359375
0.27392578125
0.274169921875
0.27490234375
0.27490234375
0.275634765625
0.274169921875
0.27392578125
0.273681640625
0.273681640625
0.2734375
0.274169921875
0.272705078125
0.273193359375
0.273193359375
0.271484375
0.271728515625
0.271728515625
0.271728515625
0.27099609375
0.269287109375
0.269287109375
0.267578125
0.266845703125
0.265380859375
0.263916015625
0.2626953125
0.261962890625
0.26123046875
0.260009765625
0.259033203125
0.258056640625
0.2568359375
0.255126953125
0.25537109375
0.253173828125
0.25244140625
0.25146484375
0.250732421875
0.249267578125
0.248779296875
0.248046875
0.247802734375
0.247802734375
0.24755859375
0.2470703125
0.247802734375
0.24853515625
0.250244140625
0.24951171875
0.249755859375
0.250732421875
0.2509765625
0.251708984375
0.251708984375
0.251220703125
0.25244140625
0.252197265625
0.253173828125
0.25341796875
0.25390625
0.254638671875
0.255615234375
0.2568359375
0.255859375
0.2568359375
0.255615234375
0.25634765625
0.25634765625
0.257568359375
0.258544921875
0.260498046875
0.26220703125
0.263427734375
0.265380859375
0.267333984375
0.268798828125
0.27001953125
0.270263671875
0.2705078125
0.270263671875
0.27001953125
0.26904296875
0.268310546875
0.266357421875
0.264892578125
0.26318359375
0.2626953125
0.26171875
0.26220703125
0.261962890625
0.264404296875
0.265380859375
0.265869140625
0.26708984375
0.267578125
0.26806640625
0.268310546875
0.269287109375
0.269287109375
0.272216796875
0.271240234375
0.272216796875
0.272216796875
0.2744140625
0.275390625
0.27587890625
0.276611328125
0.27734375
0.277099609375
0.277587890625
0.278564453125
0.27880859375
0.27978515625
0.28076171875
0.28271484375
0.281494140625
0.2841796875
0.28466796875
0.28662109375
0.2880859375
0.2900390625
0.291015625
0.291259765625
0.292724609375
0.29150390625
0.290771484375
0.289794921875
0.288818359375
0.287353515625
0.28369140625
0.281982421875
0.279296875
0.276611328125
0.2763671875
0.273681640625
0.272216796875
0.27001953125
0.267822265625
0.266845703125
0.265380859375
0.263427734375
0.261474609375
0.26025390625
0.25634765625
0.256103515625
0.254638671875
0.256103515625
0.253173828125
0.25341796875
0.252197265625
0.2509765625
0.249755859375
0.248046875
0.24853515625
0.245361328125
0.24609375
0.246337890625
0.24609375
0.246826171875
0.246826171875
0.246826171875
0.24853515625
0.2490234375
0.24853515625
0.250244140625
0.250244140625
0.251220703125
0.25146484375
0.25146484375
0.252197265625
0.251220703125
0.252685546875
0.252685546875
0.254150390625
0.255126953125
0.256591796875
0.25732421875
0.257568359375
0.25830078125
0.257568359375
0.257568359375
0.257568359375
0.25634765625
0.25634765625
0.255859375
0.255859375
0.256103515625
0.257568359375
0.2587890625
0.2607421875
0.262939453125
0.265380859375
0.268310546875
0.269775390625
0.273193359375
0.276123046875
0.27783203125
0.279541015625
0.281494140625
0.283447265625
0.28466796875
0.287109375
0.288330078125
0.28955078125
0.29150390625
0.2919921875
0.292724609375
0.292724609375
0.293212890625
0.29248046875
0.29248046875
0.29052734375
0.289306640625
0.28857421875
0.287109375
0.28564453125
0.284423828125
0.283935546875
0.2841796875
0.284912109375
0.2861328125
0.286376953125
0.287353515625
0.2880859375
0.289306640625
0.290283203125
0.291259765625
0.290771484375
0.29150390625
0.29248046875
0.292236328125
0.29248046875
0.293701171875
0.294921875
0.29541015625
0.29638671875
0.297119140625
0.297607421875
0.298583984375
0.29931640625
0.300048828125
0.301025390625
0.3017578125
0.300537109375
0.300537109375
0.30029296875
0.29931640625
0.298583984375
0.297119140625
0.296875
0.295166015625
0.294677734375
0.29345703125
0.292724609375
0.2919921875
0.290283203125
0.28955078125
0.288330078125
0.287353515625
0.2861328125
0.284912109375
0.283447265625
0.282470703125
0.28125
0.280517578125
0.27978515625
0.279541015625
0.279296875
0.279052734375
0.279052734375
0.279052734375
0.27880859375
0.278076171875
0.278564453125
0.2783203125
0.278564453125
0.279052734375
0.279541015625
0.28125
0.281494140625
0.2822265625
0.28369140625
0.284423828125
0.286376953125
0.286865234375
0.2890625
0.289794921875
0.29150390625
0.293701171875
0.294921875
0.29638671875
0.297119140625
0.298095703125
0.298095703125
0.297607421875
0.2978515625
0.297607421875
0.29736328125
0.298095703125
0.29736328125
0.297607421875
0.297119140625
0.296630859375
0.2958984375
0.295166015625
0.294921875
0.292724609375
0.2919921875
0.29052734375
0.290283203125
0.288818359375
0.288330078125
0.287841796875
0.287109375
0.28662109375
0.287353515625
0.286865234375
0.287109375
0.28564453125
0.2861328125
0.28515625
0.283447265625
0.28076171875
0.2802734375
0.279296875
0.27880859375
0.277099609375
0.275390625
0.272705078125
0.27294921875
0.271240234375
0.272216796875
0.2724609375
0.271728515625
0.271728515625
0.273193359375
0.275634765625
0.2744140625
0.27685546875
0.27587890625
0.275146484375
0.27685546875
0.27783203125
0.27880859375
0.278076171875
0.27978515625
0.281494140625
0.2822265625
0.282958984375
0.282958984375
0.284423828125
0.28369140625
0.28466796875
0.285888671875
0.285888671875
0.286865234375
0.288818359375
0.290771484375
0.291259765625
0.290771484375
0.292724609375
0.297119140625
0.294189453125
0.293701171875
0.292724609375
0.29248046875
0.28955078125
0.287353515625
0.284912109375
0.281982421875
0.27978515625
0.277099609375
0.274658203125
0.270751953125
0.268310546875
0.2666015625
0.264404296875
0.262451171875
0.26025390625
0.259521484375
0.259033203125
0.258056640625
0.25634765625
0.2548828125
0.254150390625
0.251708984375
0.250244140625
0.248046875
0.24658203125
0.244873046875
0.24462890625
0.244873046875
0.2451171875
0.245361328125
0.246337890625
0.248779296875
0.250732421875
0.252685546875
0.254150390625
0.2568359375
0.260009765625
0.262451171875
0.266357421875
0.269287109375
0.272705078125
0.276123046875
0.280029296875
0.283203125
0.28662109375
0.290771484375
0.294677734375
0.299072265625
0.301513671875
0.304443359375
0.3056640625
0.307373046875
0.310302734375
0.311279296875
0.313232421875
0.31494140625
0.315185546875
0.31591796875
0.317138671875
0.318603515625
0.320556640625
0.322998046875
0.324951171875
0.32568359375
0.325927734375
0.326416015625
0.325927734375
0.32568359375
0.325439453125
0.32470703125
0.322509765625
0.321044921875
0.319091796875
0.317138671875
0.315185546875
0.313720703125
0.311767578125
0.310791015625
0.31005859375
0.309326171875
0.3095703125
0.30908203125
0.308349609375
0.308349609375
0.30908203125
0.308349609375
0.308349609375
0.308349609375
0.307861328125
0.30810546875
0.307861328125
0.30810546875
0.307373046875
0.306884765625
0.305908203125
0.304443359375
0.3037109375
0.302978515625
0.301025390625
0.300537109375
0.300537109375
0.30029296875
0.299560546875
0.29931640625
0.298583984375
0.299072265625
0.2978515625
0.297119140625
0.29638671875
0.295166015625
0.294677734375
0.294677734375
0.293212890625
0.29345703125
0.292236328125
0.292236328125
0.292236328125
0.291748046875
0.291748046875
0.291748046875
0.2919921875
0.292236328125
0.292724609375
0.29296875
0.29296875
0.292724609375
0.292724609375
0.2919921875
0.292724609375
0.290283203125
0.28955078125
0.287841796875
0.285888671875
0.283935546875
0.282958984375
0.280029296875
0.27783203125
0.276611328125
0.274169921875
0.27392578125
0.2724609375
0.271484375
0.271240234375
0.271240234375
0.271240234375
0.2705078125
0.27099609375
0.271240234375
0.270751953125
0.269287109375
0.269775390625
0.26904296875
0.267822265625
0.267333984375
0.26708984375
0.26611328125
0.2646484375
0.266845703125
0.26611328125
0.26708984375
0.267333984375
0.267333984375
0.26806640625
0.268310546875
0.27001953125
0.268310546875
0.267333984375
0.2685546875
0.268310546875
0.269287109375
0.270263671875
0.2724609375
0.273193359375
0.275146484375
0.276123046875
0.278076171875
0.27880859375
0.28271484375
0.284423828125
0.285888671875
0.28759765625
0.289794921875
0.291259765625
0.292236328125
0.29296875
0.294189453125
0.294677734375
0.29541015625
0.297119140625
0.297119140625
0.29931640625
0.299072265625
0.30029296875
0.30126953125
0.302490234375
0.3037109375
0.3037109375
0.3056640625
0.306884765625
0.307373046875
0.308349609375
0.307861328125
0.3095703125
0.310302734375
0.31103515625
0.31201171875
0.312744140625
0.313232421875
0.314208984375
0.316162109375
0.31640625
0.317138671875
0.317626953125
0.316650390625
0.31591796875
0.318115234375
0.3173828125
0.317138671875
0.315185546875
0.312744140625
0.309326171875
0.307373046875
0.304931640625
0.30224609375
0.301025390625
0.29833984375
0.296875
0.294921875
0.2939453125
0.291259765625
0.288818359375
0.28662109375
0.28369140625
0.28076171875
0.278564453125
0.27685546875
0.275390625
0.273681640625
0.272216796875
0.27197265625
0.270751953125
0.271240234375
0.272216796875
0.272216796875
0.271240234375
0.27197265625
0.274169921875
0.27685546875
0.279296875
0.282470703125
0.285888671875
0.288818359375
0.291748046875
0.29443359375
0.29736328125
0.299072265625
0.300537109375
0.302978515625
0.3037109375
0.305419921875
0.30615234375
0.306884765625
0.307861328125
0.308837890625
0.309326171875
0.310546875
0.31103515625
0.312744140625
0.31396484375
0.314697265625
0.316650390625
0.316162109375
0.318115234375
0.3193359375
0.3271484375
0.326171875
0.323486328125
0.323974609375
0.323486328125
0.323974609375
0.323974609375
0.323974609375
0.323974609375
0.32421875
0.32470703125
0.32470703125
0.324462890625
0.324951171875
0.324462890625
0.323974609375
0.324951171875
0.3251953125
0.323974609375
0.322998046875
0.320068359375
0.3173828125
0.3154296875
0.313720703125
0.3115234375
0.309814453125
0.307373046875
0.306396484375
0.30517578125
0.303955078125
0.3037109375
0.302001953125
0.312255859375
0.309326171875
0.308837890625
0.307373046875
0.30517578125
0.306396484375
0.3076171875
0.307373046875
0.308349609375
0.308837890625
0.309326171875
0.30908203125
0.310302734375
0.310791015625
0.311279296875
0.311279296875
0.313720703125
0.314208984375
0.314697265625
0.317138671875
0.318115234375
0.320068359375
0.3212890625
0.32275390625
0.324462890625
0.325439453125
0.32666015625
0.32763671875
0.327880859375
0.32861328125
0.328369140625
0.328369140625
0.3271484375
0.325927734375
0.325927734375
0.324951171875
0.323974609375
0.323486328125
0.322021484375
0.32080078125
0.31884765625
0.317626953125
0.315185546875
0.313720703125
0.3125
0.311279296875
0.310302734375
0.308349609375
0.306396484375
0.305419921875
0.303466796875
0.30029296875
0.298095703125
0.295166015625
0.29345703125
0.288818359375
0.288818359375
0.286865234375
0.286865234375
0.285888671875
0.28564453125
0.285888671875
0.286865234375
0.286865234375
0.288818359375
0.290283203125
0.290283203125
0.292724609375
0.294189453125
0.296142578125
0.2978515625
0.301025390625
0.3037109375
0.305908203125
0.308837890625
0.31103515625
0.31201171875
0.315673828125
0.318115234375
0.320556640625
0.322998046875
0.32568359375
0.327880859375
0.328369140625
0.33056640625
0.332275390625
0.332275390625
0.335693359375
0.337646484375
0.340087890625
0.34228515625
0.342529296875
0.344970703125
0.34619140625
0.34716796875
0.347412109375
0.348876953125
0.349853515625
0.349853515625
0.351318359375
0.352294921875
0.3515625
0.353271484375
0.35302734375
0.352294921875
0.35009765625
0.350341796875
0.35107421875
0.3486328125
0.348388671875
0.347412109375
0.345703125
0.343017578125
0.33935546875
0.334716796875
0.3310546875
0.32373046875
0.315185546875
0.30810546875
0.30029296875
0.29443359375
0.290283203125
0.284912109375
0.278564453125
0.275146484375
0.27783203125
0.278564453125
0.280029296875
0.281005859375
0.28173828125
0.2841796875
0.287353515625
0.290771484375
0.293212890625
0.2958984375
0.2998046875
0.302490234375
0.30810546875
0.3134765625
0.3154296875
0.319091796875
0.322509765625
0.322998046875
0.327880859375
0.32763671875
0.33154296875
0.3330078125
0.3349609375
0.337890625
0.339599609375
0.342529296875
0.344482421875
0.346435546875
0.349365234375
0.352783203125
0.3544921875
0.357421875
0.359375
0.362060546875
0.36376953125
0.364990234375
0.365478515625
0.366455078125
0.366943359375
0.36474609375
0.36474609375
0.364990234375
0.364990234375
0.365966796875
0.365966796875
0.366943359375
0.367919921875
0.3681640625
0.36767578125
0.36767578125
0.367431640625
0.366943359375
0.36376953125
0.364013671875
0.362548828125
0.36181640625
0.359619140625
0.357666015625
0.35546875
0.352294921875
0.350341796875
0.3466796875
0.344970703125
0.343017578125
0.341064453125
0.339599609375
0.33837890625
0.337890625
0.3369140625
0.3349609375
0.335205078125
0.33447265625
0.333740234375
0.333251953125
0.33251953125
0.332275390625
0.330322265625
0.331298828125
0.331298828125
0.33056640625
0.330078125
0.329833984375
0.32958984375
0.32958984375
0.329345703125
0.328125
0.330078125
0.32958984375
0.329833984375
0.329345703125
0.328369140625
0.329833984375
0.329833984375
0.33056640625
0.3310546875
0.331787109375
0.332275390625
0.333251953125
0.3330078125
0.334228515625
0.334228515625
0.3349609375
0.333740234375
0.333740234375
0.332763671875
0.331787109375
0.332275390625
0.332275390625
0.332275390625
0.330810546875
0.331298828125
0.33056640625
0.3310546875
0.330810546875
0.330810546875
0.330810546875
0.330810546875
0.33154296875
0.33154296875
0.33154296875
0.330810546875
0.331298828125
0.3310546875
0.331787109375
0.329833984375
0.330078125
0.331787109375
0.332275390625
0.332763671875
0.332275390625
0.332763671875
0.330810546875
0.331298828125
0.331298828125
0.330322265625
0.328857421875
0.32763671875
0.3271484375
0.32666015625
0.323974609375
0.3232421875
0.322509765625
0.321533203125
0.3193359375
0.318603515625
0.317138671875
0.315673828125
0.3134765625
0.31201171875
0.311279296875
0.309814453125
0.308349609375
0.307373046875
0.3056640625
0.304443359375
0.3037109375
0.304443359375
0.302490234375
0.3017578125
0.299072265625
0.296142578125
0.29638671875
0.294189453125
0.293701171875
0.2939453125
0.292724609375
0.293701171875
0.2919921875
0.290771484375
0.290771484375
0.290283203125
0.289306640625
0.288818359375
0.28759765625
0.287841796875
0.2880859375
0.28759765625
0.287353515625
0.28857421875
0.2880859375
0.28759765625
0.289306640625
0.290771484375
0.290771484375
0.292724609375
0.294189453125
0.2958984375
0.297119140625
0.299072265625
0.300537109375
0.301513671875
0.3037109375
0.303466796875
0.30712890625
0.309326171875
0.3115234375
0.314208984375
0.315673828125
0.3173828125
0.320556640625
0.321533203125
0.322021484375
0.324951171875
0.325927734375
0.326904296875
0.32763671875
0.329833984375
0.33056640625
0.328857421875
0.331298828125
0.331298828125
0.328857421875
0.3310546875
0.328369140625
0.327880859375
0.328369140625
0.327880859375
0.326171875
0.325439453125
0.32470703125
0.320556640625
0.319091796875
0.318359375
0.314697265625
0.312255859375
0.310546875
0.308349609375
0.306884765625
0.30712890625
0.306396484375
0.306640625
0.30615234375
0.30419921875
0.30419921875
0.30517578125
0.3056640625
0.3056640625
0.306396484375
0.306396484375
0.307861328125
0.308349609375
0.31005859375
0.310302734375
0.31201171875
0.311279296875
0.311279296875
0.3115234375
0.311767578125
0.3115234375
0.312744140625
0.313720703125
0.3154296875
0.316162109375
0.317626953125
0.31884765625
0.31982421875
0.32177734375
0.32275390625
0.32373046875
0.32421875
0.324951171875
0.325439453125
0.32568359375
0.324462890625
0.324951171875
0.323974609375
0.323486328125
0.322509765625
0.32080078125
0.320068359375
0.31787109375
0.317626953125
0.317626953125
0.317626953125
0.317138671875
0.316162109375
0.3154296875
0.315185546875
0.31396484375
0.314208984375
0.313720703125
0.31201171875
0.310302734375
0.31005859375
0.30810546875
0.30908203125
0.308349609375
0.30810546875
0.306884765625
0.306396484375
0.304443359375
0.30419921875
0.302978515625
0.30078125
0.300537109375
0.30029296875
0.298583984375
0.299072265625
0.30029296875
0.299072265625
0.300048828125
0.2998046875
0.299560546875
0.2998046875
0.300048828125
0.2998046875
0.299560546875
0.30029296875
0.300048828125
0.298583984375
0.298583984375
0.298828125
0.29833984375
0.300048828125
0.29931640625
0.30029296875
0.300048828125
0.2998046875
0.298583984375
0.2978515625
0.297607421875
0.297607421875
0.2978515625
0.297119140625
0.2978515625
0.29736328125
0.297119140625
0.297607421875
0.297607421875
0.29736328125
0.298583984375
0.297607421875
0.29736328125
0.29736328125
0.296142578125
0.295654296875
0.294921875
0.294189453125
0.2939453125
0.293212890625
0.291748046875
0.292236328125
0.29150390625
0.29052734375
0.288818359375
0.289306640625
0.2880859375
0.2880859375
0.287109375
0.287353515625
0.286865234375
0.284912109375
0.284912109375
0.2841796875
0.283935546875
0.283935546875
0.283447265625
0.282958984375
0.281494140625
0.281005859375
0.27978515625
0.279052734375
0.27734375
0.2763671875
0.275634765625
0.274169921875
0.27392578125
0.273193359375
0.272705078125
0.2724609375
0.271484375
0.270263671875
0.269775390625
0.267333984375
0.269287109375
0.268798828125
0.2685546875
0.26708984375
0.266845703125
0.267333984375
0.267822265625
0.2685546875
0.270751953125
0.27197265625
0.273193359375
0.275390625
0.276611328125
0.276123046875
0.276123046875
0.278076171875
0.279541015625
0.28076171875
0.281494140625
0.28076171875
0.281005859375
0.2783203125
0.27978515625
0.280029296875
0.280029296875
0.28076171875
0.279541015625
0.27978515625
0.2783203125
0.278564453125
0.276123046875
0.275390625
0.275390625
0.273681640625
0.273681640625
0.27294921875
0.2724609375
0.27880859375
0.27978515625
0.28076171875
0.281005859375
0.28076171875
0.27880859375
0.27783203125
0.2783203125
0.27734375
0.276123046875
0.27685546875
0.275634765625
0.27490234375
0.273193359375
0.2734375
0.271484375
0.270263671875
0.269775390625
0.27001953125
0.269287109375
0.2685546875
0.268798828125
0.267333984375
0.266357421875
0.264404296875
0.26513671875
0.263427734375
0.261474609375
0.25927734375
0.2587890625
0.256591796875
0.254638671875
0.255859375
0.257080078125
0.254638671875
0.25537109375
0.254150390625
0.256103515625
0.258056640625
0.259521484375
0.258056640625
0.257080078125
0.255615234375
0.25439453125
0.255615234375
0.255126953125
0.255615234375
0.255859375
0.2568359375
0.257568359375
0.25830078125
0.25927734375
0.25927734375
0.25927734375
0.259521484375
0.258056640625
0.256591796875
0.256103515625
0.255859375
0.254638671875
0.251953125
0.253173828125
0.253662109375
0.251708984375
0.251220703125
0.250732421875
0.251708984375
0.25
0.249755859375
0.248779296875
0.247802734375
0.246826171875
0.245361328125
0.245849609375
0.244873046875
0.244384765625
0.243896484375
0.243408203125
0.242431640625
0.2412109375
0.23974609375
0.238037109375
0.23583984375
0.234619140625
0.232666015625
0.23193359375
0.229736328125
0.229248046875
0.228271484375
0.227294921875
0.22705078125
0.226318359375
0.22607421875
0.225341796875
0.224853515625
0.224365234375
0.224365234375
0.2236328125
0.223388671875
0.223876953125
0.2236328125
0.223388671875
0.22314453125
0.222900390625
0.222900390625
0.222412109375
0.22216796875
0.222900390625
0.222900390625
0.223876953125
0.223876953125
0.224365234375
0.224853515625
0.224853515625
0.225341796875
0.225830078125
0.227294921875
0.228515625
0.23046875
0.231689453125
0.2333984375
0.234375
0.235595703125
0.239013671875
0.239990234375
0.241943359375
0.2431640625
0.244873046875
0.246337890625
0.24658203125
0.24755859375
0.247314453125
0.248046875
0.2490234375
0.25
0.25048828125
0.251953125
0.25146484375
0.25244140625
0.252685546875
0.253173828125
0.253173828125
0.253662109375
0.25341796875
0.254150390625
0.2529296875
0.25244140625
0.2509765625
0.2509765625
0.24951171875
0.248291015625
0.248291015625
0.2470703125
0.24755859375
0.24658203125
0.246337890625
0.246337890625
0.2451171875
0.244384765625
0.243408203125
0.2421875
0.240478515625
0.23876953125
0.237060546875
0.23486328125
0.23388671875
0.231689453125
0.23095703125
0.230712890625
0.230224609375
0.22998046875
0.22998046875
0.22998046875
0.229248046875
0.229248046875
0.228759765625
0.22802734375
0.227783203125
0.226318359375
0.226318359375
0.22509765625
0.22412109375
0.2236328125
0.22265625
0.222900390625
0.221923828125
0.221435546875
0.22119140625
0.2216796875
0.22119140625
0.22119140625
0.221435546875
0.221435546875
0.2216796875
0.220947265625
0.221923828125
0.220703125
0.2197265625
0.219482421875
0.21923828125
0.2158203125
0.216796875
0.215576171875
0.215576171875
0.213623046875
0.21484375
0.213134765625
0.211669921875
0.21044921875
0.209716796875
0.208251953125
0.2060546875
0.205078125
0.20556640625
0.204833984375
0.2041015625
0.205322265625
0.202880859375
0.202880859375
0.203369140625
0.203125
0.203369140625
0.20458984375
0.2041015625
0.201416015625
0.203369140625
0.203857421875
0.203125
0.20458984375
0.20361328125
0.203857421875
0.2041015625
0.204345703125
0.202880859375
0.20263671875
0.20166015625
0.201416015625
0.199951171875
0.199951171875
0.199951171875
0.198974609375
0.1982421875
0.19677734375
0.195068359375
0.19482421875
0.19287109375
0.191650390625
0.1875
0.187744140625
0.18603515625
0.184326171875
0.183349609375
0.183349609375
0.182373046875
0.182861328125
0.181640625
0.181396484375
0.18017578125
0.1796875
0.179443359375
0.179443359375
0.1787109375
0.177490234375
0.177734375
0.177001953125
0.178466796875
0.178955078125
0.18017578125
0.180908203125
0.181640625
0.1845703125
0.184326171875
0.184326171875
0.185302734375
0.184814453125
0.185791015625
0.18701171875
0.188720703125
0.189208984375
0.191162109375
0.19287109375
0.19482421875
0.19677734375
0.2001953125
0.202392578125
0.2060546875
0.208740234375
0.2099609375
0.21240234375
0.2138671875
0.21435546875
0.213623046875
0.21435546875
0.212646484375
0.211669921875
0.2099609375
0.20849609375
0.207275390625
0.206298828125
0.20458984375
0.203369140625
0.202880859375
0.201416015625
0.20068359375
0.19970703125
0.19921875
0.198974609375
0.20068359375
0.201904296875
0.201904296875
0.20458984375
0.2060546875
0.2080078125
0.210693359375
0.211181640625
0.210693359375
0.2109375
0.208740234375
0.2080078125
0.205322265625
0.20361328125
0.202880859375
0.19970703125
0.1982421875
0.19677734375
0.19580078125
0.195068359375
0.19384765625
0.19189453125
0.190673828125
0.189208984375
0.188232421875
0.188232421875
0.187744140625
0.186279296875
0.18603515625
0.185546875
0.185302734375
0.184326171875
0.183349609375
0.182373046875
0.18115234375
0.179443359375
0.177978515625
0.177001953125
0.176025390625
0.175048828125
0.173583984375
0.174072265625
0.17333984375
0.172607421875
0.171630859375
0.17138671875
0.17041015625
0.169189453125
0.16748046875
0.166015625
0.164794921875
0.16357421875
0.1630859375
0.161865234375
0.161865234375
0.160888671875
0.160400390625
0.16015625
0.15966796875
0.15966796875
0.16064453125
0.160888671875
0.161376953125
0.16357421875
0.163818359375
0.16455078125
0.165283203125
0.166259765625
0.1669921875
0.1689453125
0.169677734375
0.1708984375
0.173095703125
0.173583984375
0.174560546875
0.175048828125
0.176025390625
0.175537109375
0.177001953125
0.17724609375
0.176513671875
0.177490234375
0.177490234375
0.17822265625
0.1806640625
0.1826171875
0.184814453125
0.1884765625
0.1904296875
0.192626953125
0.19384765625
0.194091796875
0.1943359375
0.195068359375
0.195068359375
0.196044921875
0.1953125
0.19384765625
0.19287109375
0.19091796875
0.189697265625
0.18701171875
0.185302734375
0.18359375
0.181396484375
0.1796875
0.1787109375
0.177978515625
0.1767578125
0.17529296875
0.173828125
0.17236328125
0.17138671875
0.168212890625
0.166015625
0.163330078125
0.160888671875
0.158203125
0.156494140625
0.154296875
0.15380859375
0.153564453125
0.1533203125
0.1533203125
0.1533203125
0.15380859375
0.1533203125
0.154296875
0.15478515625
0.156005859375
0.156494140625
0.156494140625
0.156494140625
0.156494140625
0.15673828125
0.157958984375
0.158447265625
0.158447265625
0.16015625
0.159912109375
0.159912109375
0.16015625
0.16015625
0.160888671875
0.160888671875
0.160888671875
0.1611328125
0.1611328125
0.161865234375
0.161376953125
0.161865234375
0.1630859375
0.16357421875
0.165283203125
0.16552734375
0.165283203125
0.164306640625
0.163818359375
0.16259765625
0.16162109375
0.159912109375
0.158447265625
0.15771484375
0.156982421875
0.15673828125
0.15673828125
0.156982421875
0.158203125
0.15966796875
0.1591796875
0.15966796875
0.160400390625
0.162353515625
0.162841796875
0.164794921875
0.164794921875
0.165283203125
0.16455078125
0.163330078125
0.16259765625
0.160888671875
0.159912109375
0.158447265625
0.158203125
0.158447265625
0.158935546875
0.158935546875
0.1611328125
0.162841796875
0.16357421875
0.16552734375
0.167724609375
0.167724609375
0.168701171875
0.16943359375
0.16943359375
0.169677734375
0.169677734375
0.169921875
0.17041015625
0.17138671875
0.17138671875
0.1708984375
0.170166015625
0.171630859375
0.171875
0.1728515625
0.174072265625
0.174072265625
0.175048828125
0.17578125
0.17578125
0.174072265625
0.173828125
0.173583984375
0.173583984375
0.171875
0.16943359375
0.1650390625
0.161865234375
0.159912109375
0.15966796875
0.157470703125
0.157958984375
0.15625
0.156494140625
0.157470703125
0.156005859375
0.156005859375
0.15576171875
0.155517578125
0.156494140625
0.158203125
0.155517578125
0.15478515625
0.155517578125
0.156005859375
0.1552734375
0.15576171875
0.15576171875
0.15576171875
0.1552734375
0.15478515625
0.155029296875
0.15478515625
0.15380859375
0.15380859375
0.153564453125
0.153564453125
0.1533203125
0.15283203125
0.152587890625
0.151611328125
0.15087890625
0.150146484375
0.15087890625
0.15087890625
0.150146484375
0.149658203125
0.148681640625
0.148681640625
0.14892578125
0.14990234375
0.150146484375
0.1513671875
0.152099609375
0.153076171875
0.153076171875
0.1533203125
0.15380859375
0.154052734375
0.155029296875
0.1552734375
0.155029296875
0.15478515625
0.153564453125
0.15283203125
0.152099609375
0.151611328125
0.1513671875
0.150390625
0.1513671875
0.15087890625
0.151123046875
0.1513671875
0.15185546875
0.152587890625
0.1533203125
0.154296875
0.155029296875
0.15673828125
0.157958984375
0.15966796875
0.16064453125
0.160888671875
0.16162109375
0.161865234375
0.162353515625
0.163818359375
0.163818359375
0.164306640625
0.1650390625
0.1650390625
0.165283203125
0.165283203125
0.166748046875
0.1650390625
0.16552734375
0.165771484375
0.165771484375
0.166015625
0.166015625
0.167236328125
0.16650390625
0.166259765625
0.165771484375
0.167236328125
0.164306640625
0.164306640625
0.162353515625
0.162353515625
0.16259765625
0.16455078125
0.163818359375
0.1640625
0.16357421875
0.164306640625
0.1630859375
0.16259765625
0.160888671875
0.160888671875
0.158447265625
0.1572265625
0.157470703125
0.156982421875
0.156494140625
0.156494140625
0.157470703125
0.157470703125
0.157958984375
0.157958984375
0.158447265625
0.1572265625
0.156494140625
0.15673828125
0.1572265625
0.156494140625
0.1572265625
0.156494140625
0.156005859375
0.15673828125
0.156982421875
0.1591796875
0.15869140625
0.158203125
0.159423828125
0.16064453125
0.16064453125
0.160888671875
0.162109375
0.162841796875
0.163330078125
0.163330078125
0.163330078125
0.16259765625
0.162841796875
0.161865234375
0.16064453125
0.159912109375
0.16015625
0.159912109375
0.159423828125
0.158935546875
0.158447265625
0.15771484375
0.156494140625
0.156005859375
0.153564453125
0.15185546875
0.1513671875
0.150146484375
0.148193359375
0.149169921875
0.152587890625
0.154296875
0.15673828125
0.156982421875
0.158203125
0.160888671875
0.16162109375
0.1630859375
0.16357421875
0.163818359375
0.166015625
0.169189453125
0.172119140625
0.175537109375
0.177490234375
0.180419921875
0.182373046875
0.184814453125
0.187255859375
0.189697265625
0.191162109375
0.19482421875
0.196044921875
0.19775390625
0.198974609375
0.19970703125
0.200927734375
0.200927734375
0.20166015625
0.202392578125
0.203369140625
0.20458984375
0.204833984375
0.205322265625
0.205322265625
0.205322265625
0.203857421875
0.204345703125
0.202880859375
0.2021484375
0.20166015625
0.201171875
0.201416015625
0.201904296875
0.201416015625
0.200927734375
0.20068359375
0.200439453125
0.2001953125
0.20068359375
0.200927734375
0.201904296875
0.20263671875
0.203369140625
0.20458984375
0.2060546875
0.20751953125
0.20947265625
0.210693359375
0.21142578125
0.212646484375
0.214111328125
0.21533203125
0.217529296875
0.22021484375
0.222412109375
0.224853515625
0.2275390625
0.229248046875
0.231689453125
0.234130859375
0.236572265625
0.238037109375
0.240234375
0.241943359375
0.243896484375
0.24609375
0.248291015625
0.249755859375
0.251953125
0.2529296875
0.2548828125
0.256591796875
0.258544921875
0.259521484375
0.26123046875
0.261962890625
0.262451171875
0.262451171875
0.263427734375
0.2626953125
0.261474609375
0.26220703125
0.263427734375
0.265380859375
0.267822265625
0.270263671875
0.271240234375
0.27294921875
0.2734375
0.273681640625
0.274169921875
0.27392578125
0.27392578125
0.273681640625
0.27392578125
0.273193359375
0.273193359375
0.27294921875
0.273193359375
0.2734375
0.274169921875
0.274658203125
0.275146484375
0.276123046875
0.277099609375
0.278076171875
0.280029296875
0.28173828125
0.282958984375
0.284912109375
0.286376953125
0.288818359375
0.291015625
0.292724609375
0.296142578125
0.298583984375
0.30029296875
0.30322265625
0.306396484375
0.31005859375
0.313720703125
0.316650390625
0.31982421875
0.322509765625
0.324951171875
0.32763671875
0.330322265625
0.331787109375
0.334228515625
0.335693359375
0.337890625
0.339599609375
0.342529296875
0.34423828125
0.346435546875
0.349609375
0.352294921875
0.35498046875
0.357177734375
0.360595703125
0.364013671875
0.36767578125
0.370849609375
0.3740234375
0.37646484375
0.379638671875
0.383056640625
0.3857421875
0.389892578125
0.393310546875
0.396728515625
0.3984375
0.3994140625
0.399658203125
0.399169921875
0.398193359375
0.39697265625
0.395263671875
0.395263671875
0.394287109375
0.393798828125
0.394287109375
0.395263671875
0.396240234375
0.394775390625
0.395263671875
0.39599609375
0.396240234375
0.397216796875
0.398193359375
0.401123046875
0.40283203125
0.405029296875
0.40673828125
0.408203125
0.410400390625
0.411865234375
0.412841796875
0.412353515625
0.415283203125
0.4169921875
0.417724609375
0.421630859375
0.426513671875
0.431396484375
0.43701171875
0.44189453125
0.447021484375
0.451904296875
0.456298828125
0.46337890625
0.46923828125
0.474853515625
0.479248046875
0.483642578125
0.501220703125
0.515869140625
0.531005859375
0.539794921875
0.546630859375
0.5517578125
0.556396484375
0.558837890625
0.561767578125
0.5634765625
0.565673828125
0.570068359375
0.571044921875
0.57373046875
0.575927734375
0.577880859375
0.579833984375
0.581787109375
0.583740234375
0.585693359375
0.58740234375
0.58837890625
0.589599609375
0.591064453125
0.591552734375
0.593017578125
0.593994140625
0.59423828125
0.5947265625
0.596435546875
0.597900390625
0.599365234375
0.60107421875
0.602294921875
0.603271484375
0.604248046875
0.606201171875
0.607177734375
0.609130859375
0.610595703125
0.612548828125
0.614501953125
0.616455078125
0.6181640625
0.62060546875
0.622802734375
0.623779296875
0.625732421875
0.62744140625
0.630126953125
0.63134765625
0.632568359375
0.635009765625
0.636962890625
0.639404296875
0.640380859375
0.642333984375
0.643798828125
0.644287109375
0.645263671875
0.645263671875
0.645263671875
0.645751953125
0.645751953125
0.6455078125
0.645751953125
0.646240234375
0.64697265625
0.647216796875
0.648193359375
0.649169921875
0.650634765625
0.651611328125
0.653564453125
0.654541015625
0.65673828125
0.65869140625
0.659912109375
0.661376953125
0.663330078125
0.665283203125
0.667236328125
0.669677734375
0.67138671875
0.67333984375
0.675537109375
0.677490234375
0.679443359375
0.68212890625
0.683837890625
0.685791015625
0.686279296875
0.687255859375
0.687255859375
0.687744140625
0.687744140625
0.68896484375
0.689697265625
0.690185546875
0.690185546875
0.6904296875
0.690185546875
0.690185546875
0.689208984375
0.688232421875
0.6875
0.686767578125
0.686279296875
0.685302734375
0.68603515625
0.686279296875
0.68798828125
0.688720703125
0.690673828125
0.692626953125
0.695068359375
0.697021484375
0.698974609375
0.701904296875
0.703369140625
0.704833984375
0.706787109375
0.707763671875
0.7099609375
0.711181640625
0.713134765625
0.71533203125
0.716552734375
0.718017578125
0.718994140625
0.719970703125
0.720947265625
0.720947265625
0.720947265625
0.720947265625
0.721435546875
0.722412109375
0.721435546875
0.72119140625
0.721435546875
0.721923828125
0.721923828125
0.721923828125
0.721435546875
0.721435546875
0.720947265625
0.72021484375
0.719970703125
0.719482421875
0.719482421875
0.719970703125
0.720458984375
0.721435546875
0.722412109375
0.722412109375
0.72314453125
0.724365234375
0.724365234375
0.724365234375
0.724365234375
0.724365234375
0.723876953125
0.723876953125
0.724365234375
0.724365234375
0.72509765625
0.726318359375
0.728271484375
0.730224609375
0.732177734375
0.735595703125
0.738525390625
0.740478515625
0.741455078125
0.74267578125
0.742919921875
0.744873046875
0.74560546875
0.745849609375
0.746337890625
0.746826171875
0.746826171875
0.746826171875
0.746826171875
0.747802734375
0.747802734375
0.747314453125
0.746826171875
0.747314453125
0.746826171875
0.747802734375
0.748779296875
0.750244140625
0.751708984375
0.752685546875
0.75439453125
0.75537109375
0.75732421875
0.758056640625
0.759521484375
0.759521484375
0.762451171875
0.763671875
0.765869140625
0.766845703125
0.765380859375
0.767333984375
0.7705078125
0.77099609375
0.769775390625
0.76904296875
0.768310546875
0.767333984375
0.766845703125
0.766357421875
0.765380859375
0.764404296875
0.762939453125
0.762939453125
0.76123046875
0.7607421875
0.762451171875
0.76318359375
0.763671875
0.76220703125
0.760986328125
0.7607421875
0.760498046875
0.757080078125
0.758056640625
0.760009765625
0.7587890625
0.759765625
0.759765625
0.76171875
0.76220703125
0.763427734375
0.763427734375
0.763427734375
0.763427734375
0.763427734375
0.7626953125
0.762451171875
0.761474609375
0.760986328125
0.760498046875
0.75927734375
0.758056640625
0.756591796875
0.754638671875
0.751708984375
0.749267578125
0.746826171875
0.744384765625
0.741455078125
0.7392578125
0.737548828125
0.735595703125
0.733642578125
0.732177734375
0.730224609375
0.729248046875
0.727294921875
0.725830078125
0.725341796875
0.724365234375
0.723388671875
0.722412109375
0.722900390625
0.723876953125
0.72314453125
0.72412109375
0.72412109375
0.7255859375
0.725830078125
0.72607421875
0.72705078125
0.727783203125
0.728271484375
0.728759765625
0.729736328125
0.731689453125
0.733154296875
0.735107421875
0.738037109375
0.74072265625
0.742919921875
0.745849609375
0.747314453125
0.748779296875
0.750732421875
0.751708984375
0.753173828125
0.75341796875
0.754150390625
0.754638671875
0.755615234375
0.756103515625
0.757080078125
0.757080078125
0.758544921875
0.759033203125
0.760009765625
0.760498046875
0.760498046875
0.760498046875
0.759521484375
0.758544921875
0.757568359375
0.75732421875
0.755615234375
0.755126953125
0.754638671875
0.754638671875
0.754638671875
0.755126953125
0.754638671875
0.754638671875
0.755615234375
0.755126953125
0.755615234375
0.755615234375
0.756103515625
0.757080078125
0.757080078125
0.757568359375
0.757568359375
0.757568359375
0.75732421875
0.757568359375
0.75732421875
0.758544921875
0.759521484375
0.75927734375
0.760009765625
0.761474609375
0.762451171875
0.763916015625
0.76513671875
0.765869140625
0.766357421875
0.766357421875
0.76611328125
0.765869140625
0.765380859375
0.765380859375
0.764892578125
0.763916015625
0.763427734375
0.762451171875
0.760986328125
0.759521484375
0.758056640625
0.75634765625
0.753662109375
0.751708984375
0.75
0.747802734375
0.745849609375
0.744384765625
0.742919921875
0.740966796875
0.739990234375
0.739013671875
0.738037109375
0.73779296875
0.736083984375
0.734130859375
0.732177734375
0.730224609375
0.728271484375
0.725341796875
0.722900390625
0.719970703125
0.71826171875
0.716552734375
0.716064453125
0.714599609375
0.713623046875
0.711669921875
0.710205078125
0.709228515625
0.708740234375
0.70751953125
0.708251953125
0.7080078125
0.709228515625
0.710205078125
0.711669921875
0.712158203125
0.71337890625
0.714599609375
0.713623046875
0.714599609375
0.715087890625
0.715576171875
0.716064453125
0.717041015625
0.718017578125
0.717529296875
0.7216796875
0.72265625
0.725341796875
0.72705078125
0.72900390625
0.731201171875
0.733154296875
0.734130859375
0.736083984375
0.73681640625
0.736083984375
0.736083984375
0.735107421875
0.733642578125
0.731689453125
0.728271484375
0.726318359375
0.723388671875
0.721923828125
0.72021484375
0.717041015625
0.7158203125
0.713623046875
0.710205078125
0.706787109375
0.7041015625
0.702880859375
0.702392578125
0.701904296875
0.701904296875
0.70166015625
0.70263671875
0.702880859375
0.702880859375
0.700927734375
0.701416015625
0.698974609375
0.697998046875
0.684814453125
0.67724609375
0.667236328125
0.663818359375
0.65966796875
0.657958984375
0.656982421875
0.65576171875
0.65478515625
0.656494140625
0.65576171875
0.655517578125
0.655029296875
0.654052734375
0.656005859375
0.656005859375
0.656005859375
0.656005859375
0.65771484375
0.659423828125
0.661865234375
0.664794921875
0.668212890625
0.67236328125
0.676513671875
0.680419921875
0.68505859375
0.68798828125
0.692138671875
0.696044921875
0.699951171875
0.704345703125
0.708251953125
0.71240234375
0.715087890625
0.71826171875
0.72119140625
0.724365234375
0.726806640625
0.72802734375
0.728759765625
0.728271484375
0.726318359375
0.724365234375
0.722900390625
0.719482421875
0.716064453125
0.712646484375
0.709716796875
0.7060546875
0.702880859375
0.70068359375
0.69775390625
0.695068359375
0.692626953125
0.691162109375
0.689208984375
0.687255859375
0.685302734375
0.683837890625
0.68212890625
0.680908203125
0.67919921875
0.678466796875
0.677001953125
0.675537109375
0.674072265625
0.672607421875
0.671142578125
0.668701171875
0.666748046875
0.66455078125
0.662841796875
0.660400390625
0.658447265625
0.655517578125
0.65283203125
0.650634765625
0.648681640625
0.645751953125
0.64404296875
0.641845703125
0.640380859375
0.638916015625
0.63818359375
0.63623046875
0.635986328125
0.635498046875
0.634033203125
0.63525390625
0.635009765625
0.63525390625
0.63427734375
0.633544921875
0.631591796875
0.629638671875
0.62841796875
0.626708984375
0.625732421875
0.625
0.625
0.625244140625
0.625732421875
0.626220703125
0.626708984375
0.62646484375
0.6259765625
0.625732421875
0.62451171875
0.623779296875
0.62255859375
0.621337890625
0.620361328125
0.619384765625
0.6181640625
0.616943359375
0.615966796875
0.614990234375
0.614501953125
0.613037109375
0.612060546875
0.610595703125
0.609130859375
0.606201171875
0.607177734375
0.607177734375
0.606689453125
0.606201171875
0.6064453125
0.606689453125
0.606201171875
0.606689453125
0.606201171875
0.606689453125
0.6064453125
0.606201171875
0.605712890625
0.6064453125
0.606689453125
0.607177734375
0.607177734375
0.607666015625
0.607666015625
0.60791015625
0.606201171875
0.604736328125
0.603271484375
0.601318359375
0.600341796875
0.598388671875
0.596435546875
0.594482421875
0.5927734375
0.591552734375
0.591552734375
0.591552734375
0.591796875
0.59228515625
0.592529296875
0.59326171875
0.59423828125
0.595458984375
0.595458984375
0.596435546875
0.59619140625
0.5966796875
0.596923828125
0.596923828125
0.597412109375
0.598388671875
0.598876953125
0.598876953125
0.598388671875
0.598388671875
0.597412109375
0.598876953125
0.598388671875
0.599365234375
0.599365234375
0.59912109375
0.599365234375
0.60009765625
0.5986328125
0.597900390625
0.597412109375
0.595458984375
0.593017578125
0.591552734375
0.588623046875
0.586669921875
0.583740234375
0.58154296875
0.579833984375
0.577880859375
0.576416015625
0.574951171875
0.57373046875
0.569091796875
0.567626953125
0.56591796875
0.56396484375
0.560791015625
0.559814453125
0.557861328125
0.554931640625
0.552978515625
0.552001953125
0.550537109375
0.547607421875
0.546630859375
0.544677734375
0.540771484375
0.5380859375
0.536376953125
0.533203125
0.521484375
0.516357421875
0.515869140625
0.512451171875
0.5126953125
0.509521484375
0.509033203125
0.507568359375
0.505615234375
0.5048828125
0.505126953125
0.50390625
0.502685546875
0.502197265625
0.500732421875
0.4990234375
0.49853515625
0.497802734375
0.496826171875
0.49560546875
0.494873046875
0.49365234375
0.492919921875
0.492431640625
0.492431640625
0.492431640625
0.492919921875
0.492919921875
0.493896484375
0.494873046875
0.495849609375
0.496826171875
0.497802734375
0.498291015625
0.499267578125
0.498779296875
0.4990234375
0.498779296875
0.499267578125
0.5
0.499755859375
0.5
0.500732421875
0.500244140625
0.501220703125
0.5029296875
0.504638671875
0.505859375
0.5068359375
0.50732421875
0.507080078125
0.507080078125
0.506591796875
0.506103515625
0.5048828125
0.50439453125
0.503662109375
0.504150390625
0.50439453125
0.504638671875
0.504638671875
0.50439453125
0.504150390625
0.50341796875
0.502685546875
0.502685546875
0.501220703125
0.5
0.497802734375
0.495849609375
0.492431640625
0.489990234375
0.488037109375
0.485595703125
0.48388671875
0.481201171875
0.480224609375
0.479248046875
0.477294921875
0.476318359375
0.475341796875
0.474365234375
0.4736328125
0.472412109375
0.4716796875
0.470458984375
0.47021484375
0.469970703125
0.468505859375
0.46826171875
0.468505859375
0.468017578125
0.46826171875
0.468505859375
0.46875
0.468994140625
0.468994140625
0.469482421875
0.468994140625
0.468505859375
0.468505859375
0.468505859375
0.469482421875
0.47021484375
0.47216796875
0.473388671875
0.47607421875
0.477294921875
0.479248046875
0.47998046875
0.47998046875
0.4794921875
0.478271484375
0.476806640625
0.475341796875
0.473388671875
0.471923828125
0.470458984375
0.468994140625
0.466552734375
0.464599609375
0.462646484375
0.460693359375
0.458740234375
0.457275390625
0.454833984375
0.452880859375
0.45068359375
0.448486328125
0.445068359375
0.4423828125
0.439697265625
0.43798828125
0.436767578125
0.435302734375
0.434326171875
0.433349609375
0.432373046875
0.43115234375
0.43017578125
0.429443359375
0.428955078125
0.427978515625
0.427490234375
0.427001953125
0.426025390625
0.424560546875
0.423583984375
0.422607421875
0.422119140625
0.421142578125
0.4208984375
0.420166015625
0.418701171875
0.41796875
0.416748046875
0.416015625
0.414306640625
0.41357421875
0.412841796875
0.412353515625
0.411865234375
0.411865234375
0.41162109375
0.4111328125
0.4111328125
0.410400390625
0.409912109375
0.409423828125
0.40966796875
0.409423828125
0.408935546875
0.408935546875
0.4091796875
0.409423828125
0.40966796875
0.41064453125
0.409912109375
0.408935546875
0.408447265625
0.406494140625
0.404296875
0.40185546875
0.39892578125
0.395263671875
0.391357421875
0.388916015625
0.3857421875
0.383056640625
0.380615234375
0.378173828125
0.37646484375
0.374755859375
0.37353515625
0.372802734375
0.371826171875
0.37109375
0.371826171875
0.37158203125
0.370849609375
0.370361328125
0.37060546875
0.369873046875
0.36865234375
0.36767578125
0.366943359375
0.36669921875
0.365234375
0.365478515625
0.364501953125
0.364990234375
0.365234375
0.365966796875
0.367919921875
0.370849609375
0.373779296875
0.375732421875
0.378662109375
0.383056640625
0.385009765625
0.38818359375
0.391357421875
0.394775390625
0.398193359375
0.402099609375
0.404052734375
0.405517578125
0.407470703125
0.406005859375
0.406982421875
0.406982421875
0.406005859375
0.404296875
0.404296875
0.405029296875
0.405517578125
0.40478515625
0.404541015625
0.403564453125
0.403564453125
0.402099609375
0.40087890625
0.400390625
0.399658203125
0.39892578125
0.397705078125
0.396728515625
0.39697265625
0.393798828125
0.393310546875
0.39013671875
0.387939453125
0.38671875
0.385009765625
0.38671875
0.385986328125
0.386474609375
0.386474609375
0.387939453125
0.385986328125
0.38671875
0.384765625
0.383056640625
0.38037109375
0.369873046875
0.365234375
0.360595703125
0.35693359375
0.353759765625
0.35205078125
0.349365234375
0.348388671875
0.347412109375
0.34619140625
0.344970703125
0.34326171875
0.341552734375
0.3408203125
0.33984375
0.339599609375
0.337646484375
0.337646484375
0.335693359375
0.333740234375
0.333740234375
0.33349609375
0.333251953125
0.33251953125
0.332275390625
0.33154296875
0.330810546875
0.330322265625
0.32958984375
0.3291015625
0.329345703125
0.32861328125
0.328369140625
0.328125
0.328857421875
0.327880859375
0.327880859375
0.327880859375
0.327880859375
0.328369140625
0.328125
0.327880859375
0.327880859375
0.328125
0.32861328125
0.328857421875
0.329345703125
0.329345703125
0.329833984375
0.330810546875
0.331298828125
0.33203125
0.332763671875
0.332763671875
0.3330078125
0.333740234375
0.333740234375
0.333984375
0.334228515625
0.3349609375
0.3349609375
0.334228515625
0.3349609375
0.334228515625
0.334228515625
0.333740234375
0.333740234375
0.334228515625
0.333251953125
0.3330078125
0.332275390625
0.332275390625
0.33154296875
0.331298828125
0.330810546875
0.329833984375
0.329833984375
0.329345703125
0.328857421875
0.327880859375
0.326904296875
0.326416015625
0.325927734375
0.325439453125
0.325927734375
0.324462890625
0.32373046875
0.322998046875
0.322265625
0.322265625
0.321533203125
0.32080078125
0.31982421875
0.319091796875
0.319091796875
0.318115234375
0.317626953125
0.316162109375
0.315185546875
0.31396484375
0.31298828125
0.31201171875
0.310791015625
0.309326171875
0.30810546875
0.30615234375
0.304931640625
0.302978515625
0.301513671875
0.299560546875
0.29833984375
0.29736328125
0.2958984375
0.294921875
0.293701171875
0.29248046875
0.291748046875
0.29052734375
0.289794921875
0.28955078125
0.288818359375
0.28857421875
0.287353515625
0.286865234375
0.286376953125
0.28515625
0.284423828125
0.283447265625
0.2822265625
0.28173828125
0.280517578125
0.280029296875
0.279541015625
0.279052734375
0.279052734375
0.279052734375
0.279296875
0.278564453125
0.278076171875
0.27685546875
0.275634765625
0.2744140625
0.273193359375
0.271240234375
0.270263671875
0.26904296875
0.26708984375
0.26611328125
0.26513671875
0.264404296875
0.264404296875
0.262939453125
0.26171875
0.260986328125
0.260986328125
0.260009765625
0.26025390625
0.25927734375
0.259521484375
0.259521484375
0.25927734375
0.25927734375
0.259521484375
0.26025390625
0.2607421875
0.261474609375
0.261474609375
0.26220703125
0.26220703125
0.26318359375
0.26318359375
0.263916015625
0.263916015625
0.26416015625
0.26416015625
0.264404296875
0.263916015625
0.263427734375
0.26416015625
0.264892578125
0.263916015625
0.263427734375
0.26416015625
0.2646484375
0.263427734375
0.26318359375
0.262451171875
0.262939453125
0.261474609375
0.261474609375
0.261474609375
0.260498046875
0.260009765625
0.260009765625
0.260009765625
0.259521484375
0.260498046875
0.260986328125
0.260986328125
0.261474609375
0.262939453125
0.263427734375
0.264404296875
0.265380859375
0.265380859375
0.26611328125
0.267333984375
0.266845703125
0.268310546875
0.26904296875
0.266357421875
0.2685546875
0.268310546875
0.267822265625
0.2705078125
0.270263671875
0.269775390625
0.271240234375
0.271728515625
0.27197265625
0.271240234375
0.27099609375
0.271240234375
0.26904296875
0.268310546875
0.26904296875
0.265625
0.26611328125
0.263427734375
0.262939453125
0.2626953125
0.25927734375
0.25537109375
0.254150390625
0.2529296875
0.251220703125
0.250732421875
0.25
0.24853515625
0.248046875
0.24658203125
0.2451171875
0.2451171875
0.244384765625
0.242919921875
0.241455078125
0.240966796875
0.240234375
0.2392578125
0.239013671875
0.237060546875
0.236328125
0.23388671875
0.23388671875
0.232666015625
0.231689453125
0.230712890625
0.229248046875
0.228515625
0.22705078125
0.226806640625
0.22607421875
0.22509765625
0.2236328125
0.223876953125
0.222900390625
0.22216796875
0.221435546875
0.220458984375
0.22021484375
0.21923828125
0.218994140625
0.218505859375
0.2177734375
0.217041015625
0.216552734375
0.216552734375
0.216064453125
0.216064453125
0.21533203125
0.21484375
0.214599609375
0.2138671875
0.213623046875
0.21240234375
0.212158203125
0.211669921875
0.210693359375
0.2099609375
0.209716796875
0.20947265625
0.20947265625
0.208984375
0.208251953125
0.20849609375
0.20849609375
0.208251953125
0.207763671875
0.2080078125
0.208251953125
0.207763671875
0.208251953125
0.208740234375
0.208740234375
0.209228515625
0.2099609375
0.210205078125
0.210693359375
0.211181640625
0.21142578125
0.21240234375
0.212646484375
0.214111328125
0.214111328125
0.21533203125
0.2158203125
0.216552734375
0.217041015625
0.218017578125
0.218994140625
0.219482421875
0.219970703125
0.22119140625
0.220947265625
0.221435546875
0.221435546875
0.222900390625
0.222900390625
0.222900390625
0.222900390625
0.222412109375
0.22216796875
0.222412109375
0.222900390625
0.221923828125
0.222412109375
0.222412109375
0.222412109375
0.222412109375
0.22265625
0.22314453125
0.222412109375
0.22265625
0.22216796875
0.222412109375
0.221923828125
0.2216796875
0.221923828125
0.22119140625
0.221435546875
0.220703125
0.220458984375
0.22119140625
0.220703125
0.220458984375
0.2197265625
0.2197265625
0.218994140625
0.219482421875
0.21923828125
0.218505859375
0.21728515625
0.216552734375
0.21630859375
0.214599609375
0.21435546875
0.213623046875
0.213134765625
0.212158203125
0.211669921875
0.211181640625
0.2099609375
0.209716796875
0.208740234375
0.208740234375
0.207275390625
0.20654296875
0.205810546875
0.205322265625
0.204345703125
0.202880859375
0.201904296875
0.200439453125
0.198974609375
0.196533203125
0.19482421875
0.193359375
0.19189453125
0.1904296875
0.188720703125
0.187255859375
0.185546875
0.184326171875
0.1826171875
0.182373046875
0.180908203125
0.18115234375
0.178955078125
0.177490234375
0.177490234375
0.1767578125
0.176025390625
0.17529296875
0.174560546875
0.17431640625
0.173583984375
0.172607421875
0.1708984375
0.170654296875
0.169677734375
0.1689453125
0.168701171875
0.169189453125
0.16943359375
0.169189453125
0.169921875
0.171142578125
0.172119140625
0.173583984375
0.173583984375
0.17431640625
0.174560546875
0.174560546875
0.173583984375
0.173583984375
0.17333984375
0.173583984375
0.173828125
0.174072265625
0.173583984375
0.17333984375
0.173583984375
0.1728515625
0.172607421875
0.172607421875
0.17236328125
0.172607421875
0.172119140625
0.172607421875
0.172119140625
0.171875
0.172119140625
0.172607421875
0.172119140625
0.173095703125
0.17333984375
0.174072265625
0.174560546875
0.17529296875
0.176513671875
0.177490234375
0.1767578125
0.177734375
0.177490234375
0.177001953125
0.177978515625
0.177978515625
0.177978515625
0.177734375
0.178466796875
0.177490234375
0.177001953125
0.176513671875
0.1767578125
0.17626953125
0.176513671875
0.176025390625
0.17529296875
0.175048828125
0.1748046875
0.174072265625
0.173583984375
0.174072265625
0.174560546875
0.173828125
0.173583984375
0.173583984375
0.17431640625
0.172607421875
0.171875
0.171875
0.171875
0.17138671875
0.170654296875
0.169677734375
0.17041015625
0.169677734375
0.169189453125
0.170166015625
0.167724609375
0.1689453125
0.16943359375
0.16943359375
0.169921875
0.169677734375
0.170166015625
0.17041015625
0.169921875
0.168212890625
0.16796875
0.166259765625
0.1650390625
0.16455078125
0.162353515625
0.159423828125
0.1552734375
0.149658203125
0.147216796875
0.1435546875
0.138916015625
0.135009765625
0.132080078125
0.12841796875
0.12548828125
0.12158203125
0.1181640625
0.114990234375
0.111328125
0.109130859375
0.106689453125
0.103515625
0.1015625
0.099853515625
0.09765625
0.097900390625
0.09814453125
0.098388671875
0.098388671875
0.099853515625
0.102294921875
0.104248046875
0.107177734375
0.109619140625
0.111572265625
0.114013671875
0.11669921875
0.1201171875
0.12255859375
0.125244140625
0.128662109375
0.131591796875
0.13427734375
0.137939453125
0.14111328125
0.143798828125
0.146728515625
0.149169921875
0.15087890625
0.1533203125
0.1552734375
0.1572265625
0.158447265625
0.159912109375
0.1611328125
0.16162109375
0.162841796875
0.163330078125
0.163330078125
0.162841796875
0.161865234375
0.160400390625
0.157958984375
0.156005859375
0.153564453125
0.1513671875
0.1494140625
0.147705078125
0.147216796875
0.145263671875
0.14453125
0.1435546875
0.14306640625
0.14208984375
0.141845703125
0.1416015625
0.140869140625
0.140625
0.140625
0.140869140625
0.140625
0.140869140625
0.140869140625
0.140625
0.140625
0.140625
0.140869140625
0.14013671875
0.1396484375
0.138916015625
0.138916015625
0.138916015625
0.138427734375
0.138427734375
0.13818359375
0.137939453125
0.137451171875
0.137939453125
0.136962890625
0.13720703125
0.137939453125
0.13818359375
0.138427734375
0.138427734375
0.138427734375
0.13818359375
0.137939453125
0.13720703125
0.136962890625
0.1376953125
0.13720703125
0.136962890625
0.136474609375
0.136474609375
0.13623046875
0.135498046875
0.135009765625
0.135009765625
0.134521484375
0.134521484375
0.133056640625
0.1328125
0.13232421875
0.13232421875
0.13134765625
0.13134765625
0.130615234375
0.12939453125
0.128173828125
0.127685546875
0.126708984375
0.126220703125
0.12548828125
0.124755859375
0.124755859375
0.123291015625
0.122314453125
0.12109375
0.121337890625
0.120361328125
0.119140625
0.118408203125
0.117919921875
0.11669921875
0.1162109375
0.115478515625
0.11474609375
0.1142578125
0.113525390625
0.113037109375
0.1123046875
0.111572265625
0.110595703125
0.111083984375
0.10986328125
0.109130859375
0.107666015625
0.106689453125
0.1064453125
0.104736328125
0.10400390625
0.10302734375
0.101806640625
0.100341796875
0.099853515625
0.09912109375
0.097900390625
0.09716796875
0.09619140625
0.095703125
0.094482421875
0.093994140625
0.09326171875
0.0927734375
0.091796875
0.09130859375
0.090087890625
0.090576171875
0.089599609375
0.08935546875
0.087890625
0.08740234375
0.08740234375
0.08740234375
0.08642578125
0.086669921875
0.08544921875
0.0849609375
0.084228515625
0.08349609375
0.08349609375
0.0830078125
0.08447265625
0.0830078125
0.082763671875
0.082275390625
0.082763671875
0.082275390625
0.082275390625
0.081787109375
0.0810546875
0.08154296875
0.08154296875
0.08203125
0.081787109375
0.081787109375
0.082763671875
0.08154296875
0.08349609375
0.082763671875
0.08349609375
0.082763671875
0.0830078125
0.084228515625
0.086181640625
0.086181640625
0.086181640625
0.087646484375
0.0888671875
0.08935546875
0.089599609375
0.09033203125
0.0908203125
0.09130859375
0.090576171875
0.094482421875
0.094482421875
0.09423828125
0.094482421875
0.09521484375
0.0947265625
0.095703125
0.09619140625
0.0947265625
0.09423828125
0.09521484375
0.09423828125
0.09423828125
0.09375
0.09423828125
0.094482421875
0.09423828125
0.094482421875
0.0947265625
0.0947265625
0.09521484375
0.09521484375
0.095458984375
0.095458984375
0.09521484375
0.094970703125
0.094482421875
0.094970703125
0.0947265625
0.094482421875
0.093994140625
0.09375
0.0927734375
0.093017578125
0.092041015625
0.091552734375
0.09130859375
0.090576171875
0.08984375
0.089599609375
0.089111328125
0.088134765625
0.08740234375
0.086669921875
0.085693359375
0.0849609375
0.08447265625
0.083984375
0.083740234375
0.0830078125
0.08203125
0.081298828125
0.081298828125
0.080078125
0.079345703125
0.078857421875
0.078369140625
0.077880859375
0.076416015625
0.07666015625
0.075439453125
0.0751953125
0.073974609375
0.072998046875
0.072998046875
0.0712890625
0.070556640625
0.069580078125
0.068603515625
0.0693359375
0.068115234375
0.06787109375
0.06787109375
0.0673828125
0.06689453125
0.066162109375
0.0654296875
0.065185546875
0.064208984375
0.063232421875
0.062255859375
0.0615234375
0.061279296875
0.060302734375
0.060302734375
0.059814453125
0.059814453125
0.058837890625
0.059326171875
0.058837890625
0.05908203125
0.05908203125
0.05908203125
0.059814453125
0.058837890625
0.059326171875
0.059326171875
0.059814453125
0.0595703125
0.060302734375
0.060302734375
0.060546875
0.061279296875
0.062255859375
0.0625
0.062744140625
0.063720703125
0.0634765625
0.06494140625
0.064453125
0.066162109375
0.06591796875
0.066650390625
0.06787109375
0.068115234375
0.06884765625
0.069580078125
0.07080078125
0.0712890625
0.0712890625
0.072021484375
0.072509765625
0.073974609375
0.073974609375
0.075439453125
0.076171875
0.077392578125
0.07763671875
0.078369140625
0.07958984375
0.080078125
0.080078125
0.081787109375
0.08203125
0.081787109375
0.082763671875
0.0830078125
0.08447265625
0.0849609375
0.08642578125
0.086181640625
0.08740234375
0.088134765625
0.0888671875
0.090087890625
0.089111328125
0.08984375
0.0908203125
0.091064453125
0.0908203125
0.09130859375
0.0908203125
0.09130859375
0.0908203125
0.09130859375
0.091064453125
0.09033203125
0.090576171875
0.089599609375
0.089599609375
0.088623046875
0.0888671875
0.088134765625
0.087646484375
0.08740234375
0.08740234375
0.0869140625
0.08642578125
0.0869140625
0.08642578125
0.085693359375
0.085693359375
0.084716796875
0.08447265625
0.083984375
0.08349609375
0.08349609375
0.083251953125
0.081787109375
0.080810546875
0.07958984375
0.0791015625
0.07861328125
0.077392578125
0.07666015625
0.0771484375
0.07470703125
0.07470703125
0.073974609375
0.072998046875
0.07177734375
0.0703125
0.0712890625
0.070556640625
0.068603515625
0.068603515625
0.06640625
0.065673828125
0.065673828125
0.063720703125
0.062744140625
0.06201171875
0.06005859375
0.058837890625
0.057861328125
0.0576171875
0.05712890625
0.056640625
0.054931640625
0.0546875
0.05419921875
0.054443359375
0.052001953125
0.052001953125
0.050048828125
0.05078125
0.048583984375
0.04736328125
0.048095703125
0.047607421875
0.04736328125
0.0478515625
0.04638671875
0.044677734375
0.044677734375
0.042724609375
0.04248046875
0.0439453125
0.04541015625
0.0458984375
0.045166015625
0.04443359375
0.045654296875
0.046142578125
0.047607421875
0.04833984375
0.049072265625
0.04833984375
0.050537109375
0.0517578125
0.052978515625
0.055419921875
0.056640625
0.0576171875
0.059814453125
0.060546875
0.0615234375
0.062744140625
0.063720703125
0.065185546875
0.065673828125
0.0654296875
0.0673828125
0.067138671875
0.06787109375
0.06884765625
0.0693359375
0.06982421875
0.071044921875
0.071044921875
0.07177734375
0.072509765625
0.072998046875
0.073974609375
0.073974609375
0.0751953125
0.07568359375
0.075927734375
0.076416015625
0.076416015625
0.0771484375
0.0771484375
0.077880859375
0.077880859375
0.078369140625
0.078125
0.078857421875
0.07861328125
0.0791015625
0.07958984375
0.07958984375
0.079345703125
0.080322265625
0.080078125
0.08056640625
0.080810546875
0.0810546875
0.081298828125
0.08056640625
0.080322265625
0.080322265625
0.080810546875
0.0810546875
0.07958984375
0.079345703125
0.077880859375
0.077880859375
0.07666015625
0.076416015625
0.076416015625
0.074462890625
0.073486328125
0.072998046875
0.07177734375
0.071044921875
0.06982421875
0.068115234375
0.06689453125
0.06591796875
0.06494140625
0.06396484375
0.06298828125
0.062255859375
0.061279296875
0.060791015625
0.060546875
0.06005859375
0.060302734375
0.0595703125
0.058837890625
0.058349609375
0.058349609375
0.058349609375
0.058349609375
0.0576171875
0.056640625
0.055908203125
0.05517578125
0.0546875
0.054931640625
0.05419921875
0.054931640625
0.054931640625
0.054443359375
0.05517578125
0.054443359375
0.05517578125
0.055419921875
0.0556640625
0.055419921875
0.055419921875
0.055419921875
0.054931640625
0.054443359375
0.053466796875
0.053466796875
0.052734375
0.05224609375
0.0517578125
0.05126953125
0.05126953125
0.05126953125
0.05126953125
0.051513671875
0.051025390625
0.05029296875
0.05078125
0.050537109375
0.051025390625
0.051513671875
0.052490234375
0.052734375
0.053466796875
0.052978515625
0.0537109375
0.05322265625
0.053466796875
0.053466796875
0.054443359375
0.054931640625
0.05517578125
0.055419921875
0.055908203125
0.0556640625
0.056884765625
0.056884765625
0.057861328125
0.05810546875
0.058349609375
0.058349609375
0.05908203125
0.06005859375
0.060546875
0.060791015625
0.06201171875
0.061767578125
0.0625
0.063232421875
0.064208984375
0.065185546875
0.0654296875
0.066650390625
0.066650390625
0.066650390625
0.067626953125
0.068115234375
0.068359375
0.06884765625
0.069580078125
0.070068359375
0.07080078125
0.071533203125
0.0712890625
0.070556640625
0.070068359375
0.070068359375
0.07177734375
0.07080078125
0.07080078125
0.0693359375
0.068603515625
0.068603515625
0.068115234375
0.06689453125
0.067138671875
0.067138671875
0.06787109375
0.067138671875
0.06689453125
0.066650390625
0.06591796875
0.065673828125
0.063720703125
0.062255859375
0.062744140625
0.0625
0.059814453125
0.059814453125
0.060302734375
0.059814453125
0.05859375
0.060302734375
0.05859375
0.05859375
0.05810546875
0.057861328125
0.0576171875
0.058349609375
0.056884765625
0.056884765625
0.057861328125
0.056884765625
0.055908203125
0.05517578125
0.0556640625
0.0615234375
0.0625
0.061767578125
0.060546875
0.0595703125
0.05810546875
0.05712890625
0.056640625
0.0556640625
0.053955078125
0.052490234375
0.05126953125
0.048828125
0.04833984375
0.04541015625
0.045166015625
0.04345703125
0.04296875
0.043701171875
0.04345703125
0.04296875
0.042236328125
0.04248046875
0.042236328125
0.041748046875
0.04248046875
0.0419921875
0.041748046875
0.041748046875
0.04248046875
0.0419921875
0.0419921875
0.041748046875
0.04248046875
0.042236328125
0.042236328125
0.042236328125
0.04296875
0.04248046875
0.042724609375
0.04345703125
0.044677734375
0.045166015625
0.046875
0.047607421875
0.049072265625
0.049560546875
0.05078125
0.051025390625
0.051513671875
0.052001953125
0.052001953125
0.05322265625
0.052978515625
0.054443359375
0.054931640625
0.05517578125
0.056396484375
0.05712890625
0.05810546875
0.05859375
0.06005859375
0.060546875
0.0615234375
0.062255859375
0.06298828125
0.064208984375
0.064208984375
0.065673828125
0.06640625
0.068359375
0.069091796875
0.06982421875
0.071533203125
0.07275390625
0.073486328125
0.07568359375
0.076904296875
0.077880859375
0.079345703125
0.080322265625
0.0810546875
0.08251953125
0.08251953125
0.083251953125
0.0830078125
0.083740234375
0.083984375
0.083984375
0.084228515625
0.0849609375
0.084228515625
0.083740234375
0.083984375
0.083984375
0.08447265625
0.0849609375
0.08447265625
0.084716796875
0.084716796875
0.084228515625
0.084228515625
0.085205078125
0.08544921875
0.08544921875
0.08544921875
0.0859375
0.086669921875
0.086181640625
0.08642578125
0.087158203125
0.08642578125
0.08642578125
0.086669921875
0.0869140625
0.0869140625
0.087890625
0.088134765625
0.088134765625
0.08837890625
0.088623046875
0.088134765625
0.087646484375
0.0869140625
0.086669921875
0.0859375
0.085205078125
0.0849609375
0.08447265625
0.084228515625
0.083251953125
0.083251953125
0.083251953125
0.082763671875
0.0830078125
0.082275390625
0.08251953125
0.082275390625
0.081787109375
0.081787109375
0.080810546875
0.080322265625
0.07958984375
0.078857421875
0.07763671875
0.076904296875
0.076904296875
0.07568359375
0.0751953125
0.07373046875
0.07275390625
0.07275390625
0.07177734375
0.072509765625
0.07177734375
0.072021484375
0.0712890625
0.071044921875
0.071533203125
0.070068359375
0.069580078125
0.06884765625
0.068359375
0.067138671875
0.067138671875
0.06640625
0.06689453125
0.06640625
0.066162109375
0.06640625
0.066162109375
0.066162109375
0.066162109375
0.066650390625
0.066162109375
0.06689453125
0.066162109375
0.066162109375
0.06689453125
0.06689453125
0.06787109375
0.0673828125
0.068115234375
0.06787109375
0.068359375
0.068603515625
0.068115234375
0.069091796875
0.06884765625
0.068603515625
0.0693359375
0.06982421875
0.070068359375
0.07080078125
0.070556640625
0.070556640625
0.072021484375
0.072021484375
0.072021484375
0.072998046875
0.07275390625
0.07421875
0.07568359375
0.074951171875
0.07568359375
0.076171875
0.078857421875
0.079833984375
0.080078125
0.08056640625
0.081787109375
0.0830078125
0.08349609375
0.084716796875
0.0849609375
0.08544921875
0.0849609375
0.083740234375
0.085693359375
0.0859375
0.0849609375
0.087890625
0.08740234375
0.088134765625
0.087646484375
0.086669921875
0.087890625
0.087158203125
0.0869140625
0.086669921875
0.0869140625
0.087646484375
0.087158203125
0.087158203125
0.08740234375
0.088134765625
0.088623046875
0.089111328125
0.089599609375
0.090087890625
0.08984375
0.08935546875
0.08935546875
0.089111328125
0.088623046875
0.088134765625
0.08740234375
0.08642578125
0.086669921875
0.0859375
0.086181640625
0.08544921875
0.084716796875
0.08447265625
0.084228515625
0.083984375
0.083740234375
0.0830078125
0.0830078125
0.0830078125
0.082275390625
0.081787109375
0.08154296875
0.080810546875
0.080810546875
0.08056640625
0.079833984375
0.079833984375
0.079345703125
0.0791015625
0.07861328125
0.078125
0.077880859375
0.076904296875
0.075927734375
0.07568359375
0.075439453125
0.0751953125
0.0751953125
0.074951171875
0.074951171875
0.074951171875
0.07470703125
0.073974609375
0.0732421875
0.07275390625
0.0712890625
0.071044921875
0.070068359375
0.06982421875
0.070068359375
0.06982421875
0.0693359375
0.068603515625
0.068603515625
0.06884765625
0.06787109375
0.068115234375
0.067138671875
0.06689453125
0.06640625
0.066162109375
0.0654296875
0.0654296875
0.065185546875
0.0654296875
0.06591796875
0.06591796875
0.066650390625
0.066162109375
0.066650390625
0.067138671875
0.06689453125
0.067626953125
0.068115234375
0.06884765625
0.06884765625
0.0693359375
0.06982421875
0.07080078125
0.07080078125
0.072021484375
0.071533203125
0.072509765625
0.07275390625
0.072998046875
0.0732421875
0.07373046875
0.073974609375
0.074951171875
0.074951171875
0.074951171875
0.07568359375
0.076416015625
0.07666015625
0.0771484375
0.07763671875
0.078125
0.078369140625
0.079345703125
0.079833984375
0.08056640625
0.08056640625
0.081787109375
0.08203125
0.08251953125
0.083251953125
0.083740234375
0.083984375
0.08447265625
0.085205078125
0.0859375
0.086181640625
0.08642578125
0.0869140625
0.0869140625
0.087646484375
0.087646484375
0.088623046875
0.08837890625
0.088623046875
0.0888671875
0.08935546875
0.089599609375
0.090087890625
0.08984375
0.089111328125
0.08935546875
0.089599609375
0.08935546875
0.089111328125
0.08837890625
0.087890625
0.087890625
0.087158203125
0.087158203125
0.08740234375
0.086669921875
0.086669921875
0.085205078125
0.085205078125
0.0849609375
0.084716796875
0.084228515625
0.083740234375
0.083251953125
0.08349609375
0.082763671875
0.083251953125
0.082763671875
0.082763671875
0.08251953125
0.08251953125
0.08203125
0.081787109375
0.081787109375
0.0810546875
0.08056640625
0.0810546875
0.07958984375
0.0791015625
0.079345703125
0.078369140625
0.076904296875
0.0771484375
0.075927734375
0.07470703125
0.07421875
0.07373046875
0.0732421875
0.072265625
0.070556640625
0.07080078125
0.069580078125
0.0693359375
0.068359375
0.067138671875
0.06689453125
0.0673828125
0.065673828125
0.066650390625
0.065673828125
0.065673828125
0.065673828125
0.063232421875
0.06396484375
0.064208984375
0.062255859375
0.062255859375
0.063232421875
0.062744140625
0.06201171875
0.0615234375
0.062255859375
0.062255859375
0.061767578125
0.061767578125
0.0615234375
0.060791015625
0.059326171875
0.05810546875
0.057861328125
0.06103515625
0.0615234375
0.06005859375
0.061279296875
0.0615234375
0.061279296875
0.06201171875
0.0615234375
0.063232421875
0.063232421875
0.0634765625
0.06640625
0.06689453125
0.0673828125
0.0693359375
0.069580078125
0.07177734375
0.072998046875
0.074462890625
0.0751953125
0.076904296875
0.077392578125
0.078369140625
0.078857421875
0.079345703125
0.080322265625
0.0810546875
0.08154296875
0.0830078125
0.083740234375
0.083740234375
0.084716796875
0.084716796875
0.084716796875
0.08544921875
0.085205078125
0.08544921875
0.08642578125
0.0869140625
0.087646484375
0.088134765625
0.088623046875
0.08935546875
0.08935546875
0.090576171875
0.091552734375
0.09228515625
0.093017578125
0.09375
0.094482421875
0.0947265625
0.094970703125
0.094970703125
0.09521484375
0.095458984375
0.09521484375
0.095458984375
0.095458984375
0.095947265625
0.095703125
0.095703125
0.0947265625
0.09423828125
0.09375
0.09326171875
0.093017578125
0.092041015625
0.091796875
0.09130859375
0.09130859375
0.091064453125
0.090576171875
0.090087890625
0.08984375
0.0888671875
0.08837890625
0.088134765625
0.08837890625
0.087646484375
0.087646484375
0.087158203125
0.0869140625
0.087158203125
0.086669921875
0.086669921875
0.085693359375
0.08544921875
0.0849609375
0.0849609375
0.084228515625
0.083740234375
0.083740234375
0.082763671875
0.0830078125
0.082275390625
0.081787109375
0.081298828125
0.0810546875
0.080078125
0.07861328125
0.078369140625
0.0771484375
0.077392578125
0.076171875
0.075927734375
0.07568359375
0.0751953125
0.074462890625
0.074462890625
0.073974609375
0.0732421875
0.07275390625
0.072021484375
0.071533203125
0.070556640625
0.0703125
0.070556640625
0.0703125
0.0703125
0.06982421875
0.06982421875
0.070556640625
0.0703125
0.070556640625
0.071044921875
0.070556640625
0.071044921875
0.0712890625
0.071044921875
0.07080078125
0.071533203125
0.071533203125
0.072021484375
0.07275390625
0.07373046875
0.074462890625
0.074951171875
0.075439453125
0.075927734375
0.076171875
0.076171875
0.076904296875
0.076904296875
0.07666015625
0.076904296875
0.077392578125
0.077392578125
0.077880859375
0.07861328125
0.079345703125
0.080078125
0.080322265625
0.0810546875
0.081298828125
0.081787109375
0.08251953125
0.08349609375
0.084228515625
0.083984375
0.0859375
0.08642578125
0.087158203125
0.088134765625
0.0888671875
0.08935546875
0.09033203125
0.091796875
0.092041015625
0.092529296875
0.09375
0.093994140625
0.09521484375
0.09521484375
0.09619140625
0.095458984375
0.09619140625
0.096435546875
0.097412109375
0.09765625
0.09814453125
0.09912109375
0.09912109375
0.09814453125
0.098876953125
0.09765625
0.09814453125
0.09765625
0.09814453125
0.0986328125
0.098388671875
0.09912109375
0.099609375
0.099609375
0.099609375
0.100341796875
0.10009765625
0.101318359375
0.101318359375
0.100830078125
0.10009765625
0.1005859375
0.100341796875
0.1005859375
0.100830078125
0.099609375
0.1005859375
0.1005859375
0.098876953125
0.099365234375
0.099365234375
0.098876953125
0.099365234375
0.099365234375
0.098388671875
0.097900390625
0.097900390625
0.097900390625
0.096923828125
0.09765625
0.09619140625
0.096923828125
0.09619140625
0.099365234375
0.09765625
0.09716796875
0.095947265625
0.096435546875
0.096435546875
0.09619140625
0.095703125
0.0966796875
0.095703125
0.095703125
0.095458984375
0.09619140625
0.0966796875
0.09716796875
0.096923828125
0.097412109375
0.09765625
0.09765625
0.098388671875
0.09814453125
0.097900390625
0.09765625
0.09765625
0.09765625
0.097412109375
0.097412109375
0.097900390625
0.096923828125
0.097412109375
0.09765625
0.09765625
0.09814453125
0.0986328125
0.098388671875
0.09912109375
0.099365234375
0.099853515625
0.10009765625
0.1005859375
0.100830078125
0.1015625
0.101806640625
0.1015625
0.1025390625
0.1025390625
0.1025390625
0.103271484375
0.103271484375
0.104248046875
0.1044921875
0.1044921875
0.104736328125
0.105224609375
0.105712890625
0.10595703125
0.107177734375
0.107177734375
0.10791015625
0.108642578125
0.10888671875
0.10986328125
0.1103515625
0.111572265625
0.11181640625
0.112060546875
0.112548828125
0.112548828125
0.11279296875
0.113037109375
0.114013671875
0.11376953125
0.11474609375
0.115234375
0.1162109375
0.117431640625
0.118408203125
0.11962890625
0.121337890625
0.12158203125
0.12255859375
0.123779296875
0.125244140625
0.126708984375
0.127685546875
0.128662109375
0.12890625
0.129638671875
0.1298828125
0.130615234375
0.13232421875
0.132568359375
0.133544921875
0.13330078125
0.134033203125
0.133544921875
0.13427734375
0.134521484375
0.134521484375
0.134765625
0.134765625
0.134033203125
0.134033203125
0.134033203125
0.134033203125
0.133544921875
0.1337890625
0.133056640625
0.132568359375
0.1318359375
0.131591796875
0.130859375
0.130126953125
0.129150390625
0.129150390625
0.128173828125
0.12744140625
0.12646484375
0.1259765625
0.125244140625
0.124267578125
0.123779296875
0.123779296875
0.12255859375
0.121826171875
0.120849609375
0.120361328125
0.11962890625
0.118896484375
0.118408203125
0.1171875
0.11669921875
0.115478515625
0.11474609375
0.114013671875
0.112548828125
0.11083984375
0.109375
0.108154296875
0.106689453125
0.104736328125
0.10400390625
0.10205078125
0.100830078125
0.099365234375
0.098388671875
0.0966796875
0.095458984375
0.094970703125
0.09521484375
0.093994140625
0.095458984375
0.095458984375
0.094970703125
0.095458984375
0.095458984375
0.095458984375
0.094482421875
0.094970703125
0.094482421875
0.094482421875
0.094482421875
0.0947265625
0.094970703125
0.09521484375
0.095458984375
0.095458984375
0.095458984375
0.095947265625
0.096435546875
0.096435546875
0.0966796875
0.09765625
0.09814453125
0.099365234375
0.099365234375
0.10107421875
0.10107421875
0.1015625
0.103271484375
0.10400390625
0.10302734375
0.10302734375
0.103759765625
0.10302734375
0.103515625
0.103759765625
0.10400390625
0.10498046875
0.10498046875
0.105224609375
0.105224609375
0.10546875
0.10595703125
0.10546875
0.10595703125
0.107177734375
0.107421875
0.108642578125
0.109375
0.110107421875
0.110107421875
0.110595703125
0.1123046875
0.111083984375
0.11279296875
0.11328125
0.11474609375
0.114990234375
0.115966796875
0.117919921875
0.117431640625
0.118408203125
0.118408203125
0.118896484375
0.119873046875
0.119873046875
0.118408203125
0.118408203125
0.120849609375
0.119384765625
0.121337890625
0.119384765625
0.11962890625
0.11865234375
0.118896484375
0.1181640625
0.118408203125
0.119140625
0.117919921875
0.11767578125
0.117919921875
0.11669921875
0.117919921875
0.116943359375
0.11669921875
0.11669921875
0.115966796875
0.116455078125
0.116455078125
0.115478515625
0.11474609375
0.1142578125
0.113037109375
0.11181640625
0.110595703125
0.1103515625
0.109130859375
0.108154296875
0.107177734375
0.10546875
0.104736328125
0.103271484375
0.102783203125
0.101806640625
0.1005859375
0.099853515625
0.098876953125
0.098388671875
0.09765625
0.09716796875
0.0966796875
0.095458984375
0.0947265625
0.09375
0.09326171875
0.092041015625
0.09130859375
0.089599609375
0.08837890625
0.0869140625
0.0869140625
0.0859375
0.08544921875
0.084228515625
0.083984375
0.08349609375
0.083740234375
0.0830078125
0.081787109375
0.081298828125
0.08056640625
0.079345703125
0.078125
0.07763671875
0.07666015625
0.076171875
0.074951171875
0.07421875
0.07373046875
0.072998046875
0.072509765625
0.072509765625
0.07177734375
0.071533203125
0.071044921875
0.07080078125
0.0712890625
0.0712890625
0.0712890625
0.07177734375
0.072509765625
0.072265625
0.072509765625
0.073486328125
0.07421875
0.07470703125
0.075439453125
0.075927734375
0.076171875
0.075927734375
0.07666015625
0.07666015625
0.077392578125
0.077880859375
0.078857421875
0.079345703125
0.080322265625
0.080810546875
0.08154296875
0.082275390625
0.082763671875
0.08349609375
0.084716796875
0.08544921875
0.0859375
0.086669921875
0.087890625
0.08837890625
0.0888671875
0.08984375
0.0908203125
0.091796875
0.09228515625
0.093017578125
0.0927734375
0.09375
0.09423828125
0.095458984375
0.09619140625
0.09716796875
0.098388671875
0.098388671875
0.098388671875
0.099365234375
0.099853515625
0.100341796875
0.101318359375
0.10205078125
0.102294921875
0.1025390625
0.102294921875
0.102294921875
0.10205078125
0.102294921875
0.102294921875
0.10205078125
0.102294921875
0.102294921875
0.102783203125
0.1025390625
0.102783203125
0.101806640625
0.10205078125
0.1015625
0.101318359375
0.10107421875
0.1005859375
0.10009765625
0.100341796875
0.099365234375
0.09912109375
0.0986328125
0.097900390625
0.097412109375
0.0966796875
0.0966796875
0.095947265625
0.09521484375
0.094482421875
0.093994140625
0.09375
0.093017578125
0.09228515625
0.092041015625
0.09130859375
0.090576171875
0.09033203125
0.089599609375
0.08935546875
0.089111328125
0.089111328125
0.08837890625
0.087158203125
0.087158203125
0.087158203125
0.085693359375
0.084716796875
0.084228515625
0.083251953125
0.082763671875
0.081787109375
0.08056640625
0.08056640625
0.078369140625
0.07861328125
0.077392578125
0.077392578125
0.075927734375
0.07568359375
0.07470703125
0.073974609375
0.072998046875
0.073486328125
0.072021484375
0.071533203125
0.071044921875
0.07080078125
0.070068359375
0.069580078125
0.069091796875
0.068359375
0.068359375
0.064697265625
0.0654296875
0.065185546875
0.065185546875
0.065185546875
0.064453125
0.06396484375
0.064208984375
0.063720703125
0.06396484375
0.06396484375
0.0634765625
0.06396484375
0.064208984375
0.064208984375
0.06298828125
0.06103515625
0.062255859375
0.06298828125
0.0673828125
0.067626953125
0.06787109375
0.068115234375
0.068115234375
0.0693359375
0.070556640625
0.07080078125
0.071533203125
0.072998046875
0.07275390625
0.072998046875
0.074951171875
0.075927734375
0.07763671875
0.0791015625
0.0810546875
0.082763671875
0.083251953125
0.084228515625
0.086181640625
0.08642578125
0.087158203125
0.087890625
0.088134765625
0.089111328125
0.08984375
0.090576171875
0.091552734375
0.092529296875
0.093017578125
0.0947265625
0.094970703125
0.095947265625
0.0966796875
0.097412109375
0.097412109375
0.09814453125
0.097900390625
0.098388671875
0.0986328125
0.098876953125
0.09912109375
0.0986328125
0.098876953125
0.098388671875
0.0986328125
0.0986328125
0.0986328125
0.09814453125
0.098388671875
0.0986328125
0.098388671875
0.098876953125
0.098388671875
0.0986328125
0.098388671875
0.09912109375
0.0986328125
0.099365234375
0.098876953125
0.098388671875
0.09814453125
0.096923828125
0.09716796875
0.096435546875
0.095458984375
0.095703125
0.09521484375
0.094482421875
0.093994140625
0.093505859375
0.092529296875
0.092041015625
0.09130859375
0.090576171875
0.090087890625
0.090087890625
0.089111328125
0.088623046875
0.087646484375
0.088134765625
0.087890625
0.088623046875
0.0888671875
0.08935546875
0.088623046875
0.0888671875
0.088134765625
0.08837890625
0.088134765625
0.087646484375
0.08642578125
0.085693359375
0.085693359375
0.0849609375
0.08349609375
0.0830078125
0.08251953125
0.081787109375
0.0810546875
0.081298828125
0.080078125
0.080078125
0.07958984375
0.078857421875
0.078125
0.077880859375
0.07666015625
0.0751953125
0.07470703125
0.072998046875
0.072265625
0.071044921875
0.071044921875
0.070556640625
0.069580078125
0.0693359375
0.068603515625
0.067626953125
0.067138671875
0.067138671875
0.066650390625
0.066650390625
0.066162109375
0.066650390625
0.066162109375
0.06591796875
0.066162109375
0.066162109375
0.06689453125
0.0673828125
0.068115234375
0.06787109375
0.069091796875
0.06982421875
0.070068359375
0.071044921875
0.07275390625
0.0732421875
0.074951171875
0.075439453125
0.076171875
0.075927734375
0.077392578125
0.07763671875
0.078369140625
0.078857421875
0.079833984375
0.08056640625
0.081787109375
0.082275390625
0.082763671875
0.083251953125
0.083740234375
0.084716796875
0.0849609375
0.08544921875
0.085693359375
0.0869140625
0.087646484375
0.088134765625
0.08935546875
0.091064453125
0.092529296875
0.09423828125
0.09521484375
0.0966796875
0.098388671875
0.099365234375
0.100341796875
0.101318359375
0.101806640625
0.103515625
0.103515625
0.104248046875
0.105224609375
0.10498046875
0.103759765625
0.1044921875
0.10498046875
0.104248046875
0.1044921875
0.1044921875
0.104736328125
0.105224609375
0.1044921875
0.104248046875
0.104736328125
0.105224609375
0.103515625
0.103271484375
0.103515625
0.104736328125
0.105224609375
0.106201171875
0.106201171875
0.105224609375
0.10693359375
0.106201171875
0.105712890625
0.10498046875
0.104248046875
0.1015625
0.10107421875
0.100341796875
0.100341796875
0.098388671875
0.097412109375
0.097412109375
0.097900390625
0.097412109375
0.09716796875
0.095947265625
0.095458984375
0.0947265625
0.094482421875
0.094482421875
0.092041015625
0.09228515625
0.089599609375
0.08935546875
0.086181640625
0.0830078125
0.08154296875
0.08056640625
0.078125
0.078857421875
0.078369140625
0.0791015625
0.079345703125
0.080810546875
0.08154296875
0.08056640625
0.079833984375
0.0791015625
0.0791015625
0.0771484375
0.078125
0.077392578125
0.076904296875
0.076416015625
0.076416015625
0.075439453125
0.076171875
0.0751953125
0.074462890625
0.07421875
0.07373046875
0.073486328125
0.072998046875
0.0732421875
0.07275390625
0.07275390625
0.07275390625
0.07275390625
0.072998046875
0.073486328125
0.07373046875
0.073974609375
0.074462890625
0.074462890625
0.074951171875
0.074951171875
0.07568359375
0.075927734375
0.076416015625
0.077392578125
0.07763671875
0.077880859375
0.078857421875
0.079833984375
0.08056640625
0.08056640625
0.081298828125
0.08154296875
0.081787109375
0.081787109375
0.082763671875
0.0830078125
0.0830078125
0.083251953125
0.0830078125
0.083251953125
0.0830078125
0.083251953125
0.084228515625
0.083984375
0.084228515625
0.08349609375
0.084228515625
0.084228515625
0.083740234375
0.084228515625
0.083251953125
0.083740234375
0.083251953125
0.08349609375
0.082763671875
0.0830078125
0.0830078125
0.0830078125
0.0830078125
0.0830078125
0.082275390625
0.08251953125
0.08203125
0.08203125
0.08203125
0.082763671875
0.08251953125
0.083251953125
0.08251953125
0.082763671875
0.08203125
0.08251953125
0.082275390625
0.081787109375
0.08203125
0.08203125
0.082763671875
0.08251953125
0.08251953125
0.08251953125
0.082763671875
0.08251953125
0.08203125
0.0810546875
0.080810546875
0.08056640625
0.07958984375
0.07861328125
0.07763671875
0.076416015625
0.075439453125
0.074462890625
0.072998046875
0.072509765625
0.07177734375
0.07080078125
0.070556640625
0.069091796875
0.06884765625
0.068115234375
0.068603515625
0.068115234375
0.067138671875
0.067626953125
0.0673828125
0.0673828125
0.0673828125
0.0673828125
0.06640625
0.065673828125
0.065185546875
0.064208984375
0.063232421875
0.0625
0.062255859375
0.060791015625
0.05908203125
0.05908203125
0.057861328125
0.056884765625
0.056640625
0.055419921875
0.054931640625
0.05517578125
0.054931640625
0.055419921875
0.0546875
0.054931640625
0.054443359375
0.054443359375
0.05419921875
0.054443359375
0.0546875
0.054931640625
0.0546875
0.0556640625
0.055908203125
0.056640625
0.05712890625
0.057861328125
0.058837890625
0.06005859375
0.0615234375
0.06103515625
0.061279296875
0.0615234375
0.061279296875
0.061279296875
0.061279296875
0.062255859375
0.0615234375
0.061767578125
0.063720703125
0.064697265625
0.065673828125
0.067138671875
0.068603515625
0.06884765625
0.070556640625
0.072509765625
0.07275390625
0.07421875
0.07568359375
0.076416015625
0.078125
0.078857421875
0.080078125
0.079345703125
0.079345703125
0.080322265625
0.079833984375
0.07958984375
0.080078125
0.079833984375
0.079345703125
0.07958984375
0.07958984375
0.081787109375
0.080810546875
0.080810546875
0.08056640625
0.08203125
0.082763671875
0.0830078125
0.083740234375
0.084228515625
0.0859375
0.086181640625
0.0859375
0.08642578125
0.086669921875
0.08642578125
0.087158203125
0.086181640625
0.086181640625
0.0869140625
0.08740234375
0.087646484375
0.088623046875
0.088134765625
0.086669921875
0.08642578125
0.084716796875
0.08544921875
0.08544921875
0.086181640625
0.085693359375
0.0849609375
0.085205078125
0.08544921875
0.0849609375
0.08447265625
0.084228515625
0.08447265625
0.085205078125
0.08544921875
0.085693359375
0.085693359375
0.0849609375
0.084716796875
0.083251953125
0.0830078125
0.082275390625
0.08154296875
0.08056640625
0.079833984375
0.0791015625
0.07861328125
0.07763671875
0.0771484375
0.07666015625
0.076416015625
0.076171875
0.07568359375
0.0751953125
0.0751953125
0.074462890625
0.07373046875
0.07373046875
0.07373046875
0.073974609375
0.0732421875
0.07373046875
0.07373046875
0.073486328125
0.0732421875
0.07373046875
0.07373046875
0.07373046875
0.073974609375
0.07373046875
0.074462890625
0.074951171875
0.0751953125
0.07568359375
0.075927734375
0.076171875
0.076171875
0.075927734375
0.075439453125
0.07568359375
0.074951171875
0.074951171875
0.0751953125
0.074951171875
0.0751953125
0.074951171875
0.074951171875
0.0751953125
0.075439453125
0.074951171875
0.074951171875
0.07421875
0.07470703125
0.07421875
0.074462890625
0.073974609375
0.07421875
0.073974609375
0.07470703125
0.074462890625
0.075439453125
0.075439453125
0.076416015625
0.076416015625
0.076904296875
0.07763671875
0.078857421875
0.079345703125
0.079833984375
0.079833984375
0.08056640625
0.081787109375
0.08203125
0.082763671875
0.083251953125
0.083984375
0.084716796875
0.0849609375
0.08544921875
0.086669921875
0.087646484375
0.088134765625
0.089599609375
0.090576171875
0.091552734375
0.0927734375
0.09423828125
0.095703125
0.09619140625
0.097900390625
0.09912109375
0.100341796875
0.102294921875
0.104248046875
0.106689453125
0.108642578125
0.110107421875
0.111572265625
0.113037109375
0.114501953125
0.11572265625
0.116943359375
0.118408203125
0.120361328125
0.121337890625
0.1220703125
0.122314453125
0.123046875
0.12353515625
0.12353515625
0.124755859375
0.125244140625
0.125732421875
0.126953125
0.126953125
0.1279296875
0.1279296875
0.128662109375
0.129150390625
0.129638671875
0.130615234375
0.131591796875
0.13232421875
0.133544921875
0.134521484375
0.135498046875
0.136474609375
0.13720703125
0.137939453125
0.139404296875
0.14013671875
0.141357421875
0.142333984375
0.142822265625
0.143310546875
0.144287109375
0.145263671875
0.147705078125
0.1513671875
0.15625
0.1611328125
0.166259765625
0.169677734375
0.173583984375
0.17626953125
0.177978515625
0.179931640625
0.18115234375
0.181884765625
0.182373046875
0.182861328125
0.18310546875
0.183837890625
0.18359375
0.183837890625
0.1826171875
0.183349609375
0.18359375
0.182373046875
0.182373046875
0.181396484375
0.182861328125
0.182373046875
0.183349609375
0.18408203125
0.18408203125
0.183837890625
0.18359375
0.183349609375
0.183837890625
0.184814453125
0.184814453125
0.184326171875
0.184814453125
0.186279296875
0.185546875
0.185302734375
0.185791015625
0.185302734375
0.185302734375
0.185546875
0.18310546875
0.18408203125
0.18505859375
0.185302734375
0.185791015625
0.185791015625
0.185302734375
0.1875
0.187255859375
0.189208984375
0.190673828125
0.19140625
0.192626953125
0.192138671875
0.194091796875
0.1943359375
0.1953125
0.196044921875
0.197021484375
0.1962890625
0.19677734375
0.195068359375
0.19580078125
0.195068359375
0.195068359375
0.194091796875
0.19580078125
0.195068359375
0.196044921875
0.195556640625
0.1953125
0.1962890625
0.19677734375
0.19677734375
0.195068359375
0.197021484375
0.19580078125
0.196044921875
0.19677734375
0.1953125
0.195556640625
0.19580078125
0.195556640625
0.195068359375
0.194091796875
0.1943359375
0.193603515625
0.19384765625
0.194091796875
0.193603515625
0.193603515625
0.194091796875
0.1943359375
0.194091796875
0.194091796875
0.193603515625
0.193115234375
0.193359375
0.19287109375
0.192138671875
0.191650390625
0.191162109375
0.18994140625
0.1904296875
0.18994140625
0.189697265625
0.189208984375
0.188720703125
0.188720703125
0.18798828125
0.1884765625
0.187744140625
0.187744140625
0.187744140625
0.18701171875
0.186767578125
0.185791015625
0.185302734375
0.184326171875
0.18310546875
0.182373046875
0.181396484375
0.181396484375
0.1806640625
0.180419921875
0.1796875
0.179443359375
0.17919921875
0.178466796875
0.17822265625
0.178466796875
0.17822265625
0.178466796875
0.178466796875
0.17919921875
0.178466796875
0.17822265625
0.177978515625
0.177490234375
0.177734375
0.177490234375
0.177734375
0.177490234375
0.177490234375
0.177490234375
0.177001953125
0.177978515625
0.177490234375
0.17724609375
0.177001953125
0.177490234375
0.177001953125
0.177001953125
0.176513671875
0.177490234375
0.177490234375
0.17724609375
0.177001953125
0.177490234375
0.177734375
0.178466796875
0.17822265625
0.178466796875
0.177978515625
0.177978515625
0.177734375
0.177490234375
0.177490234375
0.176513671875
0.176513671875
0.175537109375
0.1748046875
0.173828125
0.173583984375
0.17333984375
0.17236328125
0.171142578125
0.170654296875
0.169677734375
0.169189453125
0.168212890625
0.167236328125
0.166748046875
0.165771484375
0.164306640625
0.162841796875
0.162109375
0.159912109375
0.158447265625
0.1572265625
0.155029296875
0.154296875
0.152587890625
0.151611328125
0.150634765625
0.1484375
0.14697265625
0.14599609375
0.14453125
0.143310546875
0.142333984375
0.140869140625
0.1396484375
0.138671875
0.13720703125
0.1357421875
0.13525390625
0.1337890625
0.1328125
0.1318359375
0.130859375
0.1298828125
0.129150390625
0.12890625
0.127685546875
0.126953125
0.12646484375
0.12548828125
0.12548828125
0.125
0.12451171875
0.124267578125
0.123779296875
0.1240234375
0.123779296875
0.123291015625
0.12353515625
0.123291015625
0.122802734375
0.123046875
0.123046875
0.123291015625
0.12353515625
0.1220703125
0.1220703125
0.1220703125
0.120849609375
0.120849609375
0.119873046875
0.119384765625
0.117919921875
0.117431640625
0.1162109375
0.114990234375
0.113525390625
0.112548828125
0.112060546875
0.111572265625
0.1103515625
0.110595703125
0.1103515625
0.10986328125
0.10986328125
0.110107421875
0.109619140625
0.109375
0.109130859375
0.108154296875
0.107421875
0.107177734375
0.106689453125
0.106201171875
0.105712890625
0.10595703125
0.10498046875
0.1044921875
0.104248046875
0.102783203125
0.10205078125
0.1015625
0.101318359375
0.099853515625
0.099365234375
0.09912109375
0.09912109375
0.098388671875
0.098876953125
0.098388671875
0.097900390625
0.0966796875
0.095458984375
0.09423828125
0.092529296875
0.0908203125
0.089599609375
0.0888671875
0.0869140625
0.08642578125
0.085693359375
0.0859375
0.085693359375
0.085205078125
0.0859375
0.086669921875
0.087158203125
0.088134765625
0.08935546875
0.089599609375
0.091064453125
0.091796875
0.092529296875
0.093017578125
0.093994140625
0.09375
0.094970703125
0.094482421875
0.0947265625
0.094970703125
0.09375
0.094482421875
0.093994140625
0.09375
0.0947265625
0.096923828125
0.095458984375
0.097412109375
0.098876953125
0.10009765625
0.1015625
0.102783203125
0.10498046875
0.107177734375
0.107177734375
0.108154296875
0.109619140625
0.11083984375
0.110595703125
0.110595703125
0.112060546875
0.11328125
0.11328125
0.119873046875
0.11865234375
0.11669921875
0.117919921875
0.1181640625
0.118408203125
0.11767578125
0.117431640625
0.117431640625
0.1162109375
0.11669921875
0.11669921875
0.11767578125
0.117919921875
0.11767578125
0.118408203125
0.118896484375
0.11962890625
0.11962890625
0.120361328125
0.11962890625
0.1201171875
0.119384765625
0.118896484375
0.119384765625
0.11962890625
0.120361328125
0.12060546875
0.12060546875
0.120361328125
0.120849609375
0.120361328125
0.12060546875
0.121337890625
0.12158203125
0.122314453125
0.1220703125
0.122802734375
0.12255859375
0.123291015625
0.123046875
0.123779296875
0.123779296875
0.1240234375
0.124267578125
0.1240234375
0.124267578125
0.12353515625
0.123779296875
0.12353515625
0.1240234375
0.12353515625
0.124267578125
0.1240234375
0.1240234375
0.124267578125
0.1240234375
0.1240234375
0.124267578125
0.12451171875
0.12451171875
0.1240234375
0.1240234375
0.1240234375
0.123779296875
0.12353515625
0.123291015625
0.123291015625
0.12255859375
0.123046875
0.1220703125
0.121826171875
0.1220703125
0.121826171875
0.12109375
0.12060546875
0.11962890625
0.119140625
0.11865234375
