0.5235
0.6245
0.7605000000000001
0.8285
0.584
0.7455
0.6395000000000001
0.8495
1.078
0.899
0.9825
1.231
1.033
1.1675
1.116
1.0965
1.0475
1.0915
1.0825
1.0875000000000001
1.1225
1.089
1.0525
1.249
1.1325
1.0110000000000001
1.098
1.0705
1.19
1.1975
1.214
1.1175
1.1035
1.0975
1.1855
1.2895
1.0555
1.0155
1.3005
1.3535
1.314
1.3805
1.3015
1.362
1.2685
1.301
1.1595
0.683
0.7075
0.5025000000000001
0.577
0.883
1.5865
1.7515
1.9085
2.0475
1.7355
1.618
1.8325
1.6380000000000001
1.4635
1.2395
1.2955
1.3245
1.1795
0.9425
1.2145000000000001
0.929
1.1605
0.63
0.6055
0.655
0.6900000000000001
0.6265000000000001
0.5065000000000001
0.619
0.5175
0.4055
0.3875
0.1295
0.331
0.582
0.8200000000000001
0.611
0.8025
0.807
0.751
0.8915000000000001
0.75
0.7685
0.673
0.8005
0.7010000000000001
0.613
0.8455
0.841
0.8265
0.9115
1.074
1.014
0.9595
0.8985
1.1175
0.9835
1.0895
0.9470000000000001
0.9075
1.0150000000000001
1.0925
1.0385
0.887
0.895
0.6555
0.3635
0.1815
0.018000000000000002
0.0
0.3395
0.583
1.2665
1.3615
1.4595
1.4735
1.309
1.3265
1.115
1.2570000000000001
1.0445
1.0835000000000001
1.2865
1.0015
1.0825
0.6725
0.6325000000000001
0.6895
0.8115
0.357
0.3785
0.429
0.2285
0.364
0.2495
0.197
0.34650000000000003
0.3155
0.199
0.192
0.1995
0.13
0.2205
0.2445
0.20800000000000002
0.262
0.1935
0.1835
0.0455
0.14150000000000001
0.051500000000000004
0.0
0.0
0.05
0.0
0.0
0.0
0.0
0.0
0.007
0.0
0.0
0.0
0.036000000000000004
0.0
0.0
0.0
0.012
0.0
0.0
0.0
0.0
0.0
0.0
0.0
0.0
0.0
0.0
0.0615
0.0
0.0
0.019
0.1
0.289
0.336
0.1255
0.3775
0.258
0.209
0.2595
0.354
0.487
0.2405
0.6995
0.6325000000000001
0.6295000000000001
0.7030000000000001
0.64
0.5435
0.667
0.665
0.6585
0.6235
0.642
0.6375000000000001
0.755
0.728
0.7195
0.67
0.54
0.5515
0.7315
0.7625000000000001
0.7145
0.8310000000000001
0.7935
0.9415
0.7985
0.6515
0.7775
0.8310000000000001
0.775
0.7125
0.9095
0.9035
0.8285
0.9165
0.9515
0.8495
0.8735
0.504
0.5045000000000001
0.47600000000000003
0.4025
0.497
0.3675
0.486
0.523
0.14150000000000001
0.2765
0.1875
0.20500000000000002
0.163
0.145
0.14350000000000002
0.145
0.129
0.0915
0.0155
0.035500000000000004
0.0
0.013000000000000001
0.0565
0.213
0.0
0.0
0.046
0.0
0.0
0.0
0.0
0.0
0.0
0.0
0.0
0.0
0.0
0.0
0.0
0.0
0.11900000000000001
0.7045
0.319
0.0505
0.0
0.094
0.116
0.051000000000000004
0.159
0.1835
0.3025
0.5185
0.6535
0.7215
0.7805
0.8250000000000001
0.7475
0.6355000000000001
0.6825
0.723
0.7145
0.858
0.8675
0.7445
0.794
0.7475
0.907
0.909
0.846
0.925
0.8765000000000001
0.9995
1.083
0.9205
1.0205
0.9105
0.9595
1.0915
1.113
0.969
0.926
0.34800000000000003
1.3265
1.4565000000000001
1.5885
1.258
1.2495
1.0885
1.1480000000000001
0.884
0.8565
0.759
0.517
0.6025
0.5085000000000001
0.5690000000000001
0.41200000000000003
0.3135
0.2735
0.312
0.2445
0.2895
0.1355
0.2695
0.1645
0.153
0.0
0.07150000000000001
0.035500000000000004
0.061
0.0
0.0
0.0
0.0
0.0195
0.0
0.0
0.0
0.0
0.0
0.0
0.0935
0.0
0.047
0.0
0.0
0.005
0.0
0.0
0.021
0.1855
0.467
0.354
0.0
0.069
0.1205
0.1495
0.20350000000000001
0.223
0.192
0.2795
0.394
0.3945
0.6525
0.678
0.4555
0.8405
0.5670000000000001
0.628
0.638
0.717
0.7305
0.6665
0.7345
0.7585000000000001
0.7295
0.7415
0.8150000000000001
0.791
0.8805000000000001
0.8140000000000001
0.7555000000000001
0.879
0.9835
1.002
0.902
0.8895000000000001
1.0795000000000001
0.9775
1.0525
1.0215
0.86
0.965
0.8995
0.634
0.271
0.2265
0.28750000000000003
0.8855000000000001
1.447
1.5645
1.2835
1.237
1.2115
1.2335
1.1665
0.75
0.761
0.6645
0.34950000000000003
0.4895
0.38
0.28500000000000003
0.47450000000000003
0.3035
0.3375
0.4885
0.3735
0.138
0.23450000000000001
0.098
0.1785
0.11900000000000001
0.0465
0.1475
0.0
0.0
0.0
0.029500000000000002
0.0835
0.0
0.0
0.0
0.0
0.0
0.058
0.0
0.054
0.0
0.0
0.035500000000000004
0.0
0.0
0.015
0.0
0.665
0.2955
0.10200000000000001
0.02
0.2185
0.0135
0.0115
0.1255
0.322
0.08600000000000001
0.393
0.41500000000000004
0.8865000000000001
0.743
0.577
0.6875
0.6785
0.709
0.5285
0.7075
0.718
0.7395
0.6815
0.764
0.902
0.845
0.614
0.9665
0.7345
0.7455
0.982
0.9635
0.9275
0.898
0.9905
0.8215
0.9675
0.906
0.9695
0.924
0.902
0.968
1.1235
0.9580000000000001
0.681
0.5555
0.2715
0.10350000000000001
0.23
0.8315
1.2625
1.49
1.3925
1.054
0.6920000000000001
0.5945
0.23850000000000002
0.2695
0.306
0.2925
0.47400000000000003
0.2155
0.229
0.242
0.14400000000000002
0.1345
0.08600000000000001
0.194
0.0
0.0
0.0
0.0
0.0
0.0755
0.0
0.0925
0.0
0.029
0.0
0.035500000000000004
0.0275
0.0
0.0
0.0
0.0
0.0
0.028
0.182
0.3825
0.3975
0.0
0.028
0.0
0.2135
0.17300000000000001
0.013000000000000001
0.149
0.3165
0.17250000000000001
0.606
0.602
0.622
0.5345
0.6035
0.7125
0.5635
0.63
0.5585
0.7275
0.635
0.8240000000000001
0.7015
0.6985
0.8065
0.857
0.687
0.8145
0.6165
0.871
0.8955000000000001
0.8105
0.9395
1.014
0.806
1.0425
0.8355
0.9625
0.994
0.9395
0.8465
0.9795
0.847
0.4675
0.057
0.17500000000000002
0.6825
1.2765
1.4695
1.5245
1.1715
1.308
1.0755000000000001
0.999
0.8075
0.861
0.705
0.775
0.1915
0.41000000000000003
0.47800000000000004
0.307
0.3395
0.23450000000000001
0.257
0.0045000000000000005
0.163
0.0535
0.227
0.178
0.108
0.029500000000000002
0.0
0.0
0.0
0.0
0.0635
0.0
0.0
0.0
0.0
0.0
0.0
0.0
0.0
0.0
0.0
0.0
0.0755
0.014
0.067
0.0
0.0
0.3075
0.434
0.224
0.14100000000000001
0.0
0.006
0.0
0.0625
0.3255
0.131
0.3255
0.4935
0.586
0.5735
0.546
0.6665
0.637
0.596
0.5375
0.6705
0.704
0.7305
0.8205
0.65
0.9675
0.8015
0.8595
0.8455
0.8775000000000001
1.1095
1.0695000000000001
1.0295
0.9725
0.8295
0.274
0.3875
1.1345
1.4965
1.4495
1.6815
1.459
1.349
1.191
1.051
1.0175
1.0455
0.967
1.0155
0.8115
0.7145
0.6145
0.6395000000000001
0.4555
0.5435
0.334
0.40950000000000003
0.357
0.384
0.3165
0.315
0.2655
0.3125
0.227
0.196
0.188
0.2095
0.1995
0.0
0.0
0.1495
0.0
0.1065
0.0
0.041
0.035500000000000004
0.0
0.069
0.0
0.023
0.0
0.0
0.005
0.0575
0.0
0.0
0.0
0.0
0.0015
0.0115
0.0
0.0
0.006
0.0
0.0
0.0
0.0
0.0
0.083
0.5705
0.3865
0.41450000000000004
0.28350000000000003
0.0615
0.0795
0.0825
0.1805
0.1825
0.1475
0.3725
0.128
0.0675
0.23600000000000002
0.145
0.3745
0.3425
0.7005
0.8505
0.6875
0.7315
0.6705
0.7465
0.5735
0.749
0.618
0.6065
0.6275000000000001
0.553
0.6645
0.5995
0.7005
0.598
0.7535000000000001
0.7175
0.6695
0.7885
0.6285000000000001
0.7215
0.6655
0.8105
0.8255
0.6845
0.7185
0.6505
0.6875
0.7415
0.718
0.7495
0.8705
0.8235
0.979
0.9755
0.9435
0.9275
1.1340000000000001
0.7925
0.808
0.9115
0.977
0.9975
0.8505
1.053
0.999
0.8645
0.599
0.28150000000000003
0.224
0.11950000000000001
0.191
0.497
1.029
1.3095
1.397
1.4175
1.369
1.1855
1.3575
1.1355
0.9495
0.9595
1.0975
0.93
0.6735
0.7735
0.811
0.6625
0.2595
0.6435
0.4905
0.3725
0.4915
0.4585
0.3255
0.1895
0.34450000000000003
0.182
0.2515
0.1995
0.133
0.1495
0.1135
0.0375
0.0235
0.0
0.0105
0.0
0.0
0.0
0.021500000000000002
0.0
0.0
0.0
0.0
0.0
0.0
0.0
0.482
0.5675
0.211
0.054
0.0605
0.0
0.2145
0.108
0.3925
0.4295
0.4235
0.6955
0.774
0.6465
0.717
0.8295
0.59
0.6235
0.5505
0.495
0.5405
0.561
0.7155
0.562
0.8045
0.721
0.7815
0.7815
0.8555
0.769
0.8905000000000001
0.775
0.8865000000000001
0.7075
0.8105
0.7645000000000001
0.8645
0.6835
0.9450000000000001
0.8955000000000001
0.9035
1.1015
0.9715
0.9675
0.8885000000000001
1.0395
0.988
0.9455
0.7595000000000001
0.429
0.08700000000000001
0.181
0.7695
1.294
1.4875
1.2775
1.3015
1.1245
1.1655
1.1945000000000001
1.1455
0.881
0.8045
0.5740000000000001
0.402
0.4055
0.4055
0.3005
0.3295
0.2905
0.318
0.138
0.234
0.0185
0.0795
0.122
0.07150000000000001
0.1865
0.1105
0.062
0.0385
0.0
0.0375
0.0
0.0
0.0
0.0
0.0
0.0
0.0
0.0
0.0
0.07200000000000001
0.029
0.0
0.0
0.009000000000000001
0.01
0.0
0.0
0.0055
0.0
0.0
0.0
0.0
0.04
0.0075
0.023
0.074
0.0
0.106
0.022
0.506
0.293
0.35000000000000003
0.17250000000000001
0.0835
0.1235
0.059000000000000004
0.0
0.0
0.251
0.1495
0.054
0.1845
0.105
0.1935
0.686
0.386
0.609
0.5705
0.5655
0.589
0.6325000000000001
0.7185
0.579
0.7235
0.669
0.7115
0.6895
0.7165
0.6765
0.7145
0.662
0.7225
0.8115
0.6855
0.7535000000000001
0.5825
0.8475
0.741
0.8635
0.8855000000000001
0.8105
0.8065
0.9315
0.8150000000000001
0.657
0.7225
0.8195
0.9915
0.9915
0.8255
0.9585
0.897
1.0875000000000001
0.9995
0.9430000000000001
0.9585
1.046
1.041
0.9855
0.929
0.9585
0.8655
0.9805
0.7615000000000001
0.521
0.1235
0.0365
0.727
1.143
1.4655
1.3715
1.3565
1.065
1.202
1.2835
0.8735
0.8595
0.7195
0.6005
0.5145
0.5455
0.28700000000000003
0.4635
0.353
0.2555
0.3425
0.357
0.244
0.2185
0.081
0.0
0.1105
0.019
0.137
0.0
0.061
0.0
0.0
0.0695
0.112
0.019
0.079
0.0
0.001
0.0585
0.054
0.084
0.0
0.0
0.0
0.0
0.0
0.0
0.0
0.0
0.201
0.4225
0.092
0.0
0.0
0.0855
0.23700000000000002
0.02
0.2335
0.47600000000000003
0.28300000000000003
0.5325
0.6545
0.6055
0.733
0.47550000000000003
0.637
0.737
0.606
0.6515
0.629
0.721
0.8895000000000001
0.7625000000000001
0.8635
0.79
0.8615
0.8615
0.909
1.059
0.877
0.97
0.854
1.1135
1.0245
1.0915
1.0015
1.0125
0.8835000000000001
1.0835000000000001
0.6835
0.7025
0.2335
0.397
1.0345
1.4965
1.5155
1.4495
1.379
1.3265
1.2535
1.1435
0.9725
0.917
0.8665
0.7035
0.5
0.47200000000000003
0.364
0.546
0.483
0.3945
0.2415
0.405
0.2025
0.321
0.1665
0.11950000000000001
0.17350000000000002
0.056
0.1005
0.127
0.035
0.0275
0.0
0.0
0.0
0.0
0.0
0.0
0.0
0.0
0.1005
0.0
0.0
0.0
0.0455
0.0
0.0125
0.0
0.0
0.2415
0.47750000000000004
0.3715
0.1775
0.0
0.054
0.177
0.2165
0.158
0.1265
0.2215
0.3225
0.5325
0.7205
0.6615
0.5005000000000001
0.5945
0.7335
0.721
0.6605
0.6295000000000001
0.7455
0.7795
0.6925
0.8415
0.7225
0.9265
0.8115
0.8465
0.8150000000000001
0.8985
1.0245
0.9135
0.8625
0.916
0.9645
1.0005
1.0295
0.8915000000000001
1.0225
1.025
1.2025000000000001
0.9695
0.8705
0.834
0.5195
0.3555
0.192
0.633
1.4335
1.3355000000000001
1.5795000000000001
1.4295
1.4545000000000001
1.155
1.0755000000000001
1.228
0.8695
0.894
0.7565000000000001
0.645
0.4995
0.5595
0.4635
0.489
0.4415
0.2785
0.3715
0.2625
0.11950000000000001
0.051000000000000004
0.162
0.195
0.0
0.0
0.0
0.0485
0.0
0.0
0.0
0.0
0.0
0.0
0.0
0.051500000000000004
0.3225
0.41400000000000003
0.458
0.059500000000000004
0.0165
0.053
0.10400000000000001
0.0
0.14200000000000002
0.0975
0.0895
0.155
0.305
0.2265
0.3
0.45
0.6335000000000001
0.754
0.6405
0.5755
0.5755
0.5630000000000001
0.5425
0.643
0.6815
0.625
0.6475
0.6205
0.6575
0.6175
0.6845
0.73
0.6585
0.607
0.6595
0.7255
0.767
0.6755
0.8565
0.713
0.7595000000000001
0.891
0.7605000000000001
0.8160000000000001
0.6625
0.6565
0.839
0.7825
0.9455
0.9395
0.9525
0.894
0.9815
1.0395
0.8755000000000001
0.972
0.9205
0.977
1.0145
0.9565
0.9420000000000001
1.0205
0.8250000000000001
0.859
0.4205
0.2455
0.17450000000000002
0.0675
0.1715
0.3995
0.9515
1.3745
1.4975
1.433
1.4315
1.375
1.2535
1.078
1.2085000000000001
1.1725
1.041
0.8905000000000001
1.0795000000000001
0.9625
0.8300000000000001
0.591
0.4035
0.17450000000000002
0.393
0.3355
0.4465
0.3235
0.28600000000000003
0.11750000000000001
0.389
0.3315
0.1515
0.2315
0.099
0.035500000000000004
0.188
0.1065
0.1145
0.2105
0.0755
0.0
0.0
0.0
0.051500000000000004
0.0
0.0
0.0
0.0
0.0
0.0
0.0
0.0
0.0
0.0
0.0
0.0175
0.0
0.011
0.0
0.0735
0.074
0.0
0.0
0.002
0.0
0.0115
0.0485
0.0185
0.0
0.0
0.0
0.0
0.034
0.0
0.35050000000000003
0.3025
0.335
0.3585
0.017
0.036000000000000004
0.08700000000000001
0.1965
0.3045
0.20750000000000002
0.129
0.378
0.095
0.134
0.3115
0.336
0.3285
0.558
0.6845
0.602
0.55
0.6835
0.7115
0.5415
0.7020000000000001
0.6675
0.6405
0.8170000000000001
0.58
0.623
0.8015
0.7595000000000001
0.674
0.61
0.658
0.7525000000000001
0.7155
0.7675000000000001
0.757
0.8145
0.798
0.779
0.851
0.876
0.7825
0.8285
0.877
0.8795000000000001
0.8275
0.971
0.9135
0.8875000000000001
0.9550000000000001
0.9390000000000001
0.978
1.0845
0.9335
0.8200000000000001
0.8285
0.9215
0.811
0.861
0.4555
0.40650000000000003
1.0655000000000001
1.4285
1.4135
1.2715
1.2155
1.0715000000000001
1.0415
0.6265000000000001
0.493
0.301
0.5285
0.3545
0.12
0.168
0.0
0.1055
0.154
0.076
0.145
0.1255
0.0
0.0
0.027
0.054
0.0155
0.0
0.0
0.0
0.0
0.0
0.0
0.0
0.0
0.0
0.0
0.0
0.0
0.2945
0.41000000000000003
0.4225
0.0985
0.0
0.3015
0.1785
0.0
0.244
0.28200000000000003
0.2805
0.192
0.6615
0.5710000000000001
0.6625
0.7085
0.6795
0.5665
0.5815
0.726
0.7045
0.675
0.7995
0.6455
0.7395
0.7515000000000001
0.6555
0.8175
0.8735
0.836
0.894
0.8925000000000001
0.8895000000000001
0.6695
1.0825
0.8715
1.0915
0.9460000000000001
1.0915
0.9095
0.9835
1.0545
0.8955000000000001
0.9075
0.9835
0.7225
0.2255
0.0835
0.4625
1.081
1.7515
1.4735
1.553
1.3115
1.318
1.231
1.0095
1.0455
0.8175
0.923
0.647
0.362
0.294
0.5675
0.34450000000000003
0.2945
0.3065
0.325
0.314
0.1705
0.243
0.132
0.183
0.0195
0.0
0.0
0.0
0.113
0.0
0.0
0.0135
0.0
0.0
0.038
0.0505
0.0
0.0
0.0
0.0
0.061
0.0335
0.0665
0.0
0.0
0.0
0.1205
0.443
0.40900000000000003
0.105
0.0505
0.0825
0.097
0.17
0.076
0.4505
0.708
0.7625000000000001
0.7425
0.587
0.8935000000000001
0.7785
0.6885
0.6925
0.7955
0.9470000000000001
0.9615
0.8705
1.043
1.1075
1.19
1.092
1.0545
1.0005
1.0885
0.9105
0.7715
0.6945
0.3525
0.052000000000000005
0.6235
1.3355000000000001
1.669
1.414
1.4625000000000001
1.4515
1.2585
1.3295000000000001
1.2445
1.0475
0.986
0.886
0.41150000000000003
0.5175
0.5195
0.547
0.324
0.5335
0.199
0.252
0.301
0.2575
0.027
0.3395
0.06
0.1575
0.1565
0.0
0.0025
0.029500000000000002
0.08
0.0
0.0
0.0235
0.0
0.0
0.0
0.0
0.0
0.0
0.037
0.0
0.0
0.0675
0.0
0.0
0.0
0.1835
0.507
0.335
0.0645
0.0
0.0675
0.2425
0.11
0.3545
0.0375
0.2905
0.3715
0.5195
0.5875
0.6435
0.786
0.6055
0.513
0.6755
0.6185
0.6815
0.6675
0.894
0.6975
0.735
0.739
0.7325
0.7815
0.9
0.8415
0.9420000000000001
0.9875
0.9715
1.0010000000000001
0.87
1.0455
0.9490000000000001
1.0475
0.999
1.0955
1.0455
1.1515
0.861
0.9380000000000001
0.8955000000000001
0.627
0.28600000000000003
0.0345
0.549
0.9575
1.497
1.5995000000000001
1.4955
1.3115
1.329
1.105
1.0015
1.037
0.8875000000000001
0.8125
0.5865
0.554
0.5405
0.6135
0.5215
0.464
0.4595
0.364
0.2965
0.3125
0.427
0.28
0.0965
0.191
0.078
0.0
0.0055
0.0285
0.0
0.109
0.0785
0.0
0.0
0.0
0.0
0.502
0.3275
0.1225
0.1135
0.043500000000000004
0.0995
0.226
0.10200000000000001
0.504
0.321
0.391
0.6925
0.619
0.747
0.542
0.544
0.6145
0.7025
0.7165
0.6525
0.579
0.66
0.6485
0.8385
0.8425
0.6475
0.743
0.768
0.8325
0.739
0.9235
0.9855
0.9875
0.8075
0.9805
1.0795000000000001
1.0315
0.919
1.2355
0.9470000000000001
1.0175
1.0110000000000001
0.7655000000000001
0.41500000000000004
0.4395
0.183
0.5785
1.4945
1.5735000000000001
1.5795000000000001
1.4235
1.33
1.3035
1.0795000000000001
1.1265
0.9645
0.9835
0.644
0.4315
0.358
0.5455
0.433
0.5115000000000001
0.363
0.3075
0.3685
0.28350000000000003
0.1605
0.1715
0.0895
0.0265
0.1315
0.0625
0.0365
0.007
0.0
0.0
0.0
0.0
0.0385
0.0
0.0
0.0125
0.0
0.0
0.0
0.0
0.0
0.0
0.0
0.07200000000000001
0.0
0.0325
0.2965
0.4465
0.3385
0.0
0.135
0.189
0.2705
0.20600000000000002
0.176
0.1925
0.3125
0.3215
0.6525
0.7105
0.5785
0.7245
0.6445
0.6355000000000001
0.6305000000000001
0.738
0.7875
0.645
0.6485
0.7775
0.8535
0.726
0.779
0.8385
0.7365
0.7885
0.8415
0.9570000000000001
0.9355
1.0075
0.9380000000000001
1.0055
1.0335
1.1115
0.9460000000000001
1.0375
0.917
0.79
0.431
0.08700000000000001
0.8795000000000001
1.5985
1.5545
1.4365
1.4385000000000001
1.043
0.622
0.5885
0.6315000000000001
0.47300000000000003
0.511
0.491
0.1145
0.362
0.2785
0.1865
0.155
0.2495
0.20800000000000002
0.0075
0.20650000000000002
0.0
0.0385
0.1215
0.019
0.0
0.0
0.0
0.0
0.065
0.0
0.0
0.0
0.0455
0.0
0.0805
0.0
0.0955
0.1475
0.4815
0.29
0.033
0.14150000000000001
0.2215
0.0
0.17500000000000002
0.053
0.331
0.3205
0.2745
0.5195
0.585
0.639
0.7765
0.615
0.581
0.675
0.6655
0.652
0.7345
0.617
0.6925
0.9065
0.5605
0.8525
0.6725
0.7385
0.8205
0.6815
0.871
0.7995
0.9375
0.8935000000000001
0.9845
0.9915
0.9500000000000001
1.0795000000000001
1.0725
1.0435
1.1325
1.027
1.0095
0.783
0.5565
0.3375
0.17450000000000002
0.47600000000000003
1.2445
1.5535
1.5825
1.405
1.393
1.487
0.9490000000000001
0.875
1.17
0.933
0.6835
0.462
0.724
0.5005000000000001
0.491
0.5665
0.371
0.317
0.289
0.335
0.306
0.334
0.166
0.1895
0.2025
0.20400000000000001
0.1575
0.0
0.081
0.055
0.0
0.0
0.0
0.0
0.0
0.0
0.0
0.0
0.0
0.0
0.0
0.0
0.0235
0.0
0.0
0.079
0.428
0.47850000000000004
0.0
0.091
0.168
0.1295
0.1655
0.2935
0.3265
0.579
0.709
0.61
0.4645
0.6655
0.6745
0.7195
0.8575
0.9405
0.742
0.876
0.9570000000000001
0.9580000000000001
1.0615
0.9875
1.0405
0.9445
1.1215
1.1875
0.979
1.1155
1.1635
1.0695000000000001
0.5805
0.584
0.3295
0.4645
1.0685
1.5375
1.5555
1.4575
1.473
1.4705000000000001
1.097
1.1465
1.0255
0.8545
0.8395
0.917
0.4835
0.455
0.4645
0.342
0.34700000000000003
0.41600000000000004
0.3305
0.2325
0.44
0.179
0.147
0.198
0.004
0.1275
0.06
0.0675
0.0
0.0
0.0
0.0
0.0
0.0
0.0
0.0
0.0
0.0275
0.0
0.0675
0.0
0.0
0.0
0.0
0.0
0.0
0.0415
0.5185
0.182
0.392
0.0305
0.0575
0.1145
0.1535
0.259
0.152
0.3035
0.211
0.3265
0.5285
0.596
0.6925
0.6605
0.498
0.5795
0.6955
0.7255
0.756
0.5745
0.7235
0.7415
0.739
0.769
0.7005
0.6785
0.8765000000000001
0.785
0.8875000000000001
0.7685
0.9115
0.8665
0.9275
0.9225
0.922
1.0095
1.0235
1.106
1.038
1.1005
1.0935
0.9445
0.6865
0.2935
0.1045
0.5205
0.9875
1.6495
1.3875
1.4685000000000001
1.4555
1.4755
1.0435
0.8655
1.0035
0.786
0.6795
0.7375
0.5445
0.378
0.417
0.542
0.4525
0.3085
0.264
0.2795
0.0635
0.255
0.2135
0.0
0.197
0.0035
0.04
0.0
0.1355
0.0
0.07100000000000001
0.0
0.0
0.043000000000000003
0.0
0.0
0.0
0.0
0.0
0.28500000000000003
0.23550000000000001
0.0
0.041
0.2565
0.0825
0.2165
0.197
0.304
0.2105
0.759
0.7275
0.6285000000000001
0.6575
0.5755
0.6665
0.6895
0.5875
0.659
0.7915
0.6675
0.8905000000000001
0.835
0.627
0.9575
0.7235
0.8925000000000001
0.9590000000000001
0.775
0.8735
0.9435
0.9390000000000001
0.9995
1.0095
1.103
0.93
0.9045
0.9255
0.9115
0.9835
1.1675
1.1375
1.0685
1.0205
0.8130000000000001
0.5685
0.501
0.153
0.228
0.456
0.725
1.194
1.4755
1.518
1.3555
1.4275
1.2745
1.1595
1.0085
1.1705
1.088
1.0915
1.087
0.9405
0.729
0.711
0.5680000000000001
0.4165
0.217
0.2965
0.3415
0.1875
0.334
0.28500000000000003
0.369
0.212
0.1275
0.276
0.1575
0.228
0.1245
0.1265
0.1085
0.0305
0.147
0.122
0.0
0.0205
0.0
0.0585
0.0
0.0
0.0
0.0
0.0
0.0
0.095
0.0
0.0565
0.004
0.0
0.0
0.0
0.0
0.083
0.0
0.08600000000000001
0.0
0.0
0.0
0.115
0.0
0.0
0.0
0.0
0.0
0.0
0.0
0.0
0.0
0.0935
0.2745
0.462
0.428
0.151
0.0795
0.0005
0.0
0.0055
0.076
0.1205
0.025
0.3145
0.3525
0.506
0.47150000000000003
0.7855
0.615
0.533
0.6255000000000001
0.6155
0.5925
0.592
0.6375000000000001
0.7435
0.463
0.7305
0.6095
0.9375
0.7175
0.7425
0.8375
0.737
0.8665
0.793
0.775
0.9375
0.9315
0.9365
1.1455
0.8895000000000001
1.082
1.0035
0.9005
0.449
0.151
0.743
1.0505
1.56
1.5545
1.5170000000000001
1.5215
1.291
0.883
0.63
0.5555
0.4915
0.561
0.4975
0.3595
0.396
0.2975
0.2245
0.399
0.28150000000000003
0.20750000000000002
0.21
0.179
0.138
0.049
0.099
0.0
0.047
0.0
0.0395
0.025500000000000002
0.048
0.0
0.0
0.0
0.0
0.059500000000000004
0.0
0.0
0.0
0.1885
0.303
0.182
0.4605
0.367
0.158
0.1355
0.226
0.147
0.2335
0.1765
0.246
0.1955
0.241
0.196
0.37
0.4
0.2415
0.6135
0.719
0.7685
0.7095
0.7695
0.7285
0.7030000000000001
0.836
0.9135
0.7765
0.8965
0.9145
0.8250000000000001
0.8635
0.895
0.805
0.9515
0.717
1.0195
0.9035
0.9165
0.9125
1.1395
1.0235
1.1535
1.058
1.1515
1.0585
1.1735
1.0435
1.0575
1.0935
1.1545
0.558
0.301
0.0885
0.507
0.8525
1.6995
1.5045
1.4875
1.4825
1.3835
1.1420000000000001
1.1755
1.0795000000000001
0.9345
0.8230000000000001
0.718
0.456
0.4615
0.6125
0.4215
0.5325
0.2655
0.357
0.2785
0.39
0.266
0.378
0.248
0.181
0.1605
0.037
0.121
0.1085
0.0
0.0
0.025
0.0
0.0
0.006
0.0
0.0
0.0265
0.0
0.1115
0.0
0.0
0.057
0.0
0.0
0.0
0.0235
0.1835
0.391
0.3065
0.0
0.1695
0.106
0.0
0.28800000000000003
0.3725
0.23950000000000002
0.29
0.343
0.3705
0.598
0.594
0.541
0.7055
0.4525
0.6005
0.809
0.8035
0.642
0.8295
0.7865
0.809
0.877
0.9175
0.92
0.8565
0.803
0.917
0.879
0.8675
0.965
0.9530000000000001
0.9085
1.0205
1.0230000000000001
1.006
0.9375
1.197
0.9775
1.1135
1.0075
0.9195
0.4285
0.2335
0.3405
0.075
0.4675
0.5805
1.0825
1.3655
1.4565000000000001
1.4555
1.547
1.3735
1.326
1.242
1.2735
1.1195
1.0435
1.0135
0.899
0.8485
0.7655000000000001
0.7825
0.806
0.7095
0.3785
0.384
0.396
0.2925
0.1675
0.296
0.0725
0.0315
0.1875
0.026000000000000002
0.14300000000000002
0.1135
0.0445
0.0245
0.1145
0.033
0.065
0.116
0.0665
0.026000000000000002
0.0
0.0
0.0
0.0
0.0
0.0
0.0
0.0
0.0
0.0
0.0
0.0105
0.0
0.0
0.0
0.0
0.0
0.0
0.0
0.0385
0.05
0.0
0.0
0.0
0.0
0.074
0.0
0.0
0.0
0.0
0.0525
0.3705
0.534
0.4375
0.3025
0.3
0.1495
0.043500000000000004
0.126
0.0635
0.1795
0.11750000000000001
0.1875
0.308
0.3795
0.4395
0.2975
0.47700000000000004
0.534
0.806
0.6785
0.6515
0.41100000000000003
0.6345000000000001
0.685
0.5975
0.757
0.7535000000000001
0.6655
0.672
0.7395
0.8935000000000001
0.6925
0.6475
0.793
0.8180000000000001
0.891
0.8300000000000001
0.8825000000000001
0.874
0.9500000000000001
1.024
1.0205
1.0595
1.1075
1.045
1.123
1.061
1.1505
0.9425
0.9435
0.614
0.1515
0.2135
1.083
1.627
1.6105
1.5515
1.421
1.297
0.977
1.024
1.281
0.8260000000000001
0.6975
0.657
0.5095000000000001
0.394
0.5175
0.3155
0.297
0.4375
0.231
0.259
0.1785
0.17500000000000002
0.2495
0.1975
0.0685
0.0
0.0
0.0945
0.022
0.0
0.0
0.0
0.0
0.0
0.0
0.0
0.0
0.0
0.0505
0.0
0.0
0.0
0.045
0.0445
0.0
0.0
0.3345
0.0
0.0
0.094
0.034
0.193
0.114
0.1635
0.5
0.494
0.6035
0.4635
0.502
0.803
0.6915
0.6045
0.6595
0.549
0.5965
0.661
0.7205
0.5375
0.7715
0.782
0.7455
0.8655
0.9275
0.8005
0.787
0.8965
0.8285
0.7175
0.846
0.5975
0.6825
0.8225
0.7005
0.6890000000000001
0.8185
0.9430000000000001
0.8250000000000001
0.8395
0.865
0.8525
1.0545
1.025
0.937
1.0285
0.9285
0.8635
1.0425
0.9125
0.7975
0.5705
0.2285
0.1275
0.08700000000000001
0.41100000000000003
0.6905
1.1245
1.3695
1.451
1.4825
1.2585
1.5825
1.2875
1.046
1.1435
1.1415
1.1575
0.9885
0.6915
0.8785000000000001
0.6715
0.6875
0.35150000000000003
0.3925
0.4855
0.381
0.2605
0.299
0.2025
0.1005
0.3185
0.20700000000000002
0.3405
0.182
0.212
0.128
0.1365
0.0
0.14400000000000002
0.0115
0.0
0.0
0.0
0.0
0.0
0.001
0.0
0.0
0.0
0.0
0.0
0.0
0.0
0.0275
0.0
0.014
0.0
0.0
0.0
0.08600000000000001
0.024
0.0315
0.0
0.0
0.0
0.0325
0.0
0.0
0.0115
0.518
0.5465
0.115
0.2005
0.0
0.1765
0.2445
0.021
0.1245
0.3995
0.428
0.3695
0.9355
0.7115
0.6095
0.6715
0.8260000000000001
0.6930000000000001
0.673
0.524
0.7175
0.7835
0.6595
0.855
0.8295
0.8655
0.767
0.7415
0.9675
0.8625
0.9265
0.9430000000000001
0.863
1.1095
0.9705
0.9785
1.0575
1.0635000000000001
1.1375
1.065
0.971
0.9575
1.1915
0.9225
0.505
0.052000000000000005
0.784
1.6995
1.3345
1.3575
1.2505
1.1500000000000001
1.0435
0.9385
0.405
0.5935
0.4475
0.4935
0.131
0.2965
0.153
0.35050000000000003
0.0315
0.162
0.1135
0.0
0.1045
0.059500000000000004
0.0
0.0
0.0
0.0
0.0
0.01
0.0
0.0
0.0
0.0845
0.0
0.0
0.0
0.0645
0.111
0.4875
0.3075
0.0
0.2095
0.12
0.14150000000000001
0.3615
0.134
0.3105
0.3405
0.364
0.683
0.6900000000000001
0.6355000000000001
0.6625
0.5730000000000001
0.7515000000000001
0.7065
0.5845
0.7315
0.6435
0.6315000000000001
0.662
0.657
0.5685
0.5625
0.6685
0.7905
0.7345
0.7075
0.8395
0.8365
0.7755
0.8555
0.8295
0.746
0.851
0.6555
0.5465
0.8005
0.8165
0.7255
0.9775
0.8175
0.9555
1.0110000000000001
0.7465
0.9435
0.8745
0.901
0.9375
0.9025
0.9055
1.069
0.9735
0.9805
0.9375
0.8935000000000001
0.805
0.362
0.34950000000000003
0.14350000000000002
0.2985
0.212
0.6685
1.0205
1.5605
1.5515
1.6275
1.4995
1.2875
1.2285
1.2915
1.3615
1.145
0.909
1.0205
0.8285
0.8270000000000001
0.6465
0.5685
0.713
0.513
0.3305
0.427
0.4525
0.2475
0.5315
0.3565
0.40850000000000003
0.223
0.2195
0.28200000000000003
0.16
0.1885
0.2495
0.0805
0.0685
0.0
0.14350000000000002
0.0
0.0
0.0
0.0
0.0025
0.024
0.0
0.0
0.054
0.051000000000000004
0.0
0.0
0.075
0.0
0.0
0.0395
0.121
0.017
0.0
0.0
0.054
0.0
0.0
0.074
0.0
0.0015
0.0
0.0
0.111
0.0
0.0
0.061
0.133
0.4935
0.4495
0.063
0.0
0.0
0.129
0.233
0.078
0.312
0.2185
0.41300000000000003
0.6155
0.583
0.556
0.534
0.7000000000000001
0.613
0.624
0.798
0.687
0.7655000000000001
0.764
0.789
0.9550000000000001
0.9580000000000001
1.0010000000000001
1.071
1.239
1.065
1.1775
1.073
1.1095
1.0285
1.1615
0.6805
0.4635
0.34
0.8525
1.489
1.5715000000000001
1.6825
1.589
1.411
1.3015
1.2155
1.165
0.873
0.9530000000000001
0.853
0.3915
0.359
0.4675
0.494
0.3345
0.402
0.3555
0.296
0.234
0.2525
0.155
0.3295
0.1155
0.0
0.0125
0.0
0.11850000000000001
0.0
0.0
0.0
0.0
0.0245
0.0
0.025
0.0
0.0
0.0
0.0
0.0
0.0
0.0
0.0455
0.0
0.0
0.0085
0.116
0.638
0.20400000000000001
0.013000000000000001
0.0
0.07100000000000001
0.0425
0.123
0.211
0.09
0.333
0.383
0.4495
0.7375
0.663
0.721
0.5155
0.7535000000000001
0.7155
0.5505
0.6675
0.7095
0.917
0.5635
0.7085
0.6915
0.8195
0.7735
0.801
0.8325
0.833
0.7835
0.866
0.7115
1.1015
1.0050000000000001
0.978
1.0475
1.0695000000000001
1.0155
0.8655
1.1875
1.0815000000000001
1.1465
0.8895000000000001
0.47550000000000003
0.381
0.28750000000000003
0.4365
1.6055
1.7425
1.419
1.6185
1.4295
1.1675
1.0105
1.0375
0.7895
0.915
0.3875
0.5555
0.4345
0.371
0.657
0.42
0.3645
0.34650000000000003
0.3405
0.2915
0.3285
0.1305
0.1965
0.0885
0.045
0.179
0.0605
0.14300000000000002
0.0915
0.031
0.0
0.081
0.0
0.0155
0.0
0.0
0.0
0.0
0.0
0.0
0.0
0.0
0.0
0.0
0.0
0.0
0.4595
0.45
0.3325
0.0
0.0
0.0
0.017
0.2235
0.016
0.2725
0.5365
0.4535
0.4195
0.7095
0.5845
0.8575
0.709
0.669
0.7325
0.6415
0.667
0.7525000000000001
0.7775
0.6835
0.7865
0.8075
0.8485
0.8835000000000001
0.9915
0.9545
0.85
1.0110000000000001
1.1845
0.8915000000000001
0.9915
1.212
1.2125000000000001
0.9225
1.033
1.182
0.7715
0.3695
0.6935
1.5130000000000001
1.4975
1.049
1.2225
0.928
0.7965
0.8305
0.53
0.47450000000000003
0.384
0.3855
0.443
0.391
0.47750000000000004
0.196
0.2125
0.134
0.213
0.11750000000000001
0.0765
0.1315
0.156
0.0265
0.0
0.0
0.0
0.0
0.055
0.0
0.009000000000000001
0.0
0.0
0.1245
0.0565
0.0965
0.014
0.0
0.0
0.021500000000000002
0.0
0.0
0.0
0.025
0.1105
0.0805
0.0
0.0005
0.0085
0.0205
0.0
0.0
0.18
0.4895
0.4525
0.394
0.256
0.0
0.0
0.0
0.1585
0.0745
0.055
0.0005
0.316
0.135
0.23650000000000002
0.307
0.242
0.444
0.3635
0.4275
0.6895
0.607
0.7005
0.6235
0.6765
0.5775
0.6465
0.6225
0.5775
0.7225
0.7955
0.5755
0.774
0.8515
0.789
0.8645
0.8130000000000001
0.6935
0.7055
0.7145
0.9015
0.7635000000000001
0.8965
0.749
0.721
0.8495
0.7715
0.7135
0.7965
0.8815000000000001
0.8885000000000001
0.9875
0.857
0.8180000000000001
0.9035
0.805
0.9665
0.8565
0.8665
0.879
1.0505
0.8265
0.9945
1.0135
0.9875
0.931
0.8785000000000001
0.558
0.2955
0.0855
0.0
0.2925
0.3645
0.851
1.3595
1.6195
1.3245
1.7195
1.4015
1.4125
1.1385
1.2790000000000001
1.0315
0.9795
0.6525
0.685
0.7005
0.656
0.6890000000000001
0.4855
0.374
0.265
0.40850000000000003
0.254
0.28350000000000003
0.46900000000000003
0.23450000000000001
0.182
0.23800000000000002
0.0895
0.1015
0.0085
0.0915
0.0
0.0
0.1955
0.0
0.0
0.043500000000000004
0.0
0.0
0.0
0.0345
0.0
0.0
0.0
0.0
0.0
0.0
0.0
0.0
0.0
0.0
0.0
0.0
0.0
0.0
0.0
0.2195
0.4595
0.5205
0.081
0.1135
0.20400000000000001
0.121
0.40850000000000003
0.362
0.7385
0.6845
0.6575
0.5635
0.6595
0.756
0.833
0.7445
0.7885
0.65
0.898
1.091
0.8835000000000001
1.108
0.893
1.174
1.1905000000000001
0.9955
1.08
1.137
1.0535
0.9855
1.1045
0.7945
0.549
0.369
0.229
0.109
0.8655
1.129
1.5925
1.7105000000000001
1.471
1.5055
1.3655
1.2115
1.165
1.1465
1.0145
0.995
1.044
0.8140000000000001
1.0555
0.7235
0.6435
0.733
0.281
0.6675
0.522
0.512
0.368
0.3795
0.3185
0.3125
0.32
0.2945
0.211
0.3415
0.2475
0.2155
0.0445
0.1535
0.14350000000000002
0.1265
0.079
0.0455
0.0
0.0
0.08700000000000001
0.0075
0.08
0.0
0.0
0.0
0.038
0.0
0.17350000000000002
0.039
0.041
0.0
0.0
0.0
0.0
0.0
0.0
0.0
0.0
0.0
0.0415
0.0
0.04
0.0
0.0
0.0
0.0
0.0
0.0
0.003
0.271
0.311
0.194
0.309
0.11800000000000001
0.0
0.20550000000000002
0.027
0.0
0.0095
0.256
0.215
0.3145
0.225
0.325
0.5585
0.6545
0.6875
0.6485
0.5465
0.5925
0.671
0.733
0.561
0.7115
0.6055
0.8245
0.6845
0.753
0.6605
0.6805
0.7535000000000001
0.915
0.7805
0.7895
0.8445
0.8140000000000001
0.8165
0.8535
0.8495
1.038
1.114
0.9815
0.8615
1.0715000000000001
0.7145
0.9235
0.8615
0.41300000000000003
0.28250000000000003
0.067
0.5215
0.963
1.495
1.3145
1.3645
1.2565
1.2035
1.048
1.0190000000000001
0.903
0.6745
0.5245
0.51
0.4685
0.3385
0.397
0.28300000000000003
0.354
0.2555
0.294
0.20500000000000002
0.125
0.04
0.11850000000000001
0.137
0.169
0.035500000000000004
0.0
0.0095
0.0
0.0525
0.0665
0.013000000000000001
0.0755
0.0
0.0
0.0
0.0
0.0
0.025500000000000002
0.3975
0.418
0.0775
0.0
0.135
0.14200000000000002
0.132
0.1675
0.4685
0.453
0.422
0.802
0.9115
0.7125
0.6995
0.6885
0.663
0.7635000000000001
0.6950000000000001
0.7385
0.6845
0.8175
0.7645000000000001
0.7795
0.884
0.751
0.7755
0.8515
0.795
0.8695
0.8435
0.6695
0.911
0.8785000000000001
0.8695
0.8185
1.0415
0.9105
0.8645
0.9325
0.85
0.8995
0.7675000000000001
0.3005
0.08
0.212
0.342
1.1135
1.4485000000000001
1.3145
1.4985
1.1195
1.2815
0.9065
0.9955
0.7575000000000001
0.6845
0.41550000000000004
0.3135
0.3635
0.316
0.41000000000000003
0.1675
0.261
0.1945
0.315
0.2265
0.219
0.073
0.1135
0.10300000000000001
0.07150000000000001
0.0525
0.0
0.0
0.1235
0.047
0.0425
0.005
0.034
0.0025
0.0
0.0
0.0
0.001
0.0
0.0
0.0
0.0
0.0
0.0
0.0
0.0075
0.0
0.0
0.0
0.1045
0.5415
0.358
0.3155
0.3795
0.117
0.0
0.186
0.2105
0.1325
0.0905
0.1375
0.1845
0.275
0.202
0.47000000000000003
0.433
0.7155
0.6385000000000001
0.621
0.6165
0.7585000000000001
0.6735
0.7295
0.7685
0.7415
0.5865
0.595
0.775
0.6355000000000001
0.7105
0.61
0.6465
0.9835
0.7535000000000001
0.9065
0.9635
1.0035
0.9555
0.8190000000000001
0.746
0.9155
0.809
0.9390000000000001
0.8425
0.4685
0.1505
0.1445
0.6625
1.5745
1.325
0.9835
0.716
0.323
0.291
0.28500000000000003
0.1705
0.2725
0.2935
0.163
0.1685
0.064
0.187
0.0915
0.11800000000000001
0.0
0.043000000000000003
0.0615
0.001
0.0135
0.0
0.0
0.0
0.0
0.0405
0.0
0.0895
0.0
0.0
0.0
0.111
0.0
0.0
0.0
0.0
0.0
0.0
0.0225
0.0
0.20650000000000002
0.3835
0.6405
0.40950000000000003
0.0
0.0895
0.005
0.0
0.151
0.28750000000000003
0.168
0.1335
0.1375
0.199
0.324
0.356
0.491
0.483
0.4405
0.5355
0.5605
0.5665
0.6285000000000001
0.675
0.8675
0.7965
0.6165
0.6435
0.6035
0.495
0.6615
0.6445
0.6085
0.5745
0.5965
0.5695
0.7245
0.739
0.6315000000000001
0.7755
0.6595
0.7735
0.7385
0.6445
0.7845
0.7445
0.6835
0.749
0.7375
0.8235
0.6975
0.8435
0.6935
0.8905000000000001
0.7215
0.6935
0.7965
0.3845
0.0815
0.0
0.5065000000000001
0.9715
1.4535
1.3375000000000001
1.1865
1.0030000000000001
1.0875000000000001
1.217
0.8275
0.7985
0.746
0.5055000000000001
0.3785
0.3555
0.271
0.306
0.357
0.2085
0.1995
0.323
0.1265
0.2095
0.2095
0.0335
0.1365
0.0375
0.128
0.0155
0.034
0.064
0.0395
0.0155
0.0
0.0
0.074
0.039
0.07200000000000001
0.0
0.0
0.0
0.0
0.0
0.0
0.0
0.0
0.0
0.065
0.245
0.47900000000000004
0.1325
0.0
0.1875
0.0
0.1775
0.1445
0.357
0.3225
0.5595
0.6645
0.651
0.675
0.658
0.71
0.6955
0.715
0.7275
0.6715
0.6990000000000001
0.6795
0.764
0.7905
0.777
0.7755
0.838
1.133
0.86
0.9435
0.886
0.9885
0.8085
0.895
0.617
0.2165
0.081
0.379
0.5405
1.0435
1.3675
1.4675
1.4555
1.462
1.4455
1.4535
1.2505
1.0925
0.891
0.9895
0.7455
0.8465
0.6715
0.677
0.3675
0.54
0.2095
0.307
0.365
0.40650000000000003
0.136
0.2195
0.23
0.1465
0.1985
0.244
0.14200000000000002
0.14250000000000002
0.17250000000000001
0.18
0.13
0.2635
0.1055
0.153
0.0275
0.052000000000000005
0.0405
0.155
0.017
0.1075
0.0135
0.1075
0.0665
0.07100000000000001
0.0
0.0
0.0
0.0
0.0
0.0045000000000000005
0.0
0.0
0.0
0.0
0.0045000000000000005
0.164
0.0
0.0
0.0
0.0
0.0
0.0
0.10400000000000001
0.3655
0.4035
0.124
0.09
0.0
0.0
0.28650000000000003
0.134
0.249
0.12
0.35050000000000003
0.4855
0.6145
0.7515000000000001
0.5415
0.743
0.6755
0.8055
0.809
0.672
0.6095
0.6505
0.6855
0.8145
0.6055
0.709
0.7715
0.671
0.7815
0.8275
0.773
0.725
0.7935
0.9185
0.7455
0.7695
0.7595000000000001
0.9875
0.87
0.8665
0.6335000000000001
0.8485
0.881
0.5935
0.4895
0.0
0.0
0.6005
1.082
1.5895000000000001
1.3905
1.33
1.022
1.0125
1.0675000000000001
0.9245
0.9580000000000001
0.6195
0.506
0.588
0.3135
0.425
0.34500000000000003
0.23600000000000002
0.328
0.234
0.17200000000000001
0.039
0.088
0.045
0.039
0.181
0.0
0.059500000000000004
0.0
0.013000000000000001
0.0245
0.079
0.059000000000000004
0.0
0.0
0.0
0.0
0.0
0.0
0.14200000000000002
0.501
0.329
0.09
0.0
0.0
0.067
0.125
0.1995
0.2125
0.2135
0.197
0.1245
0.4235
0.28250000000000003
0.6655
0.6745
0.676
0.6085
0.7005
0.514
0.6890000000000001
0.6195
0.6575
0.7975
0.6615
0.786
0.62
0.74
0.7235
0.753
0.594
0.6655
0.6465
0.6595
0.761
0.7425
0.617
0.6930000000000001
0.7375
0.719
0.8495
0.7885
0.6275000000000001
0.7185
0.6705
0.6215
0.7595000000000001
0.7705
0.812
0.686
0.7215
0.7315
0.8145
0.725
0.659
0.7215
0.7465
0.798
0.8065
0.613
0.7505000000000001
0.2965
0.0
0.042
0.376
1.0145
1.3495
1.323
1.4295
1.2405
1.033
1.242
0.7225
1.0095
0.6225
0.456
0.466
0.2645
0.47750000000000004
0.24
0.177
0.369
0.333
0.1625
0.176
0.1815
0.048
0.1085
0.1655
0.1895
0.1365
0.0
0.0
0.0
0.0
0.1465
0.0
0.1095
0.019
0.1475
0.0
0.0
0.0
0.0
0.006500000000000001
0.0
0.0
0.0
0.0
0.0
0.0105
0.3635
0.3415
0.091
0.0
0.0845
0.07100000000000001
0.1355
0.255
0.20550000000000002
0.1495
0.269
0.3555
0.6475
0.602
0.7935
0.6405
0.855
0.623
0.6975
0.7555000000000001
0.8935000000000001
0.781
0.6950000000000001
0.8585
0.6295000000000001
0.8205
0.785
0.833
0.7965
0.7085
0.855
0.844
0.99
0.8675
0.8935000000000001
0.8535
0.8215
0.7195
0.8315
1.0
0.8245
0.7455
0.863
0.7335
0.9215
0.6485
0.28
0.059000000000000004
0.026000000000000002
0.2145
0.769
1.2575
1.1295
0.8585
0.7415
0.783
0.5525
0.7265
0.7105
0.23950000000000002
0.3215
0.23
0.1695
0.31
0.255
0.18
0.245
0.2445
0.294
0.0395
0.083
0.138
0.0495
0.016
0.0
0.0
0.0
0.0055
0.0645
0.0
0.0
0.0
0.0
0.0
0.0
0.0
0.068
0.0465
0.0
0.0
0.0
0.0
0.0
0.1775
0.3935
0.4345
0.1345
0.091
0.0575
0.198
0.125
0.2125
0.265
0.2915
0.359
0.5695
0.643
0.443
0.598
0.537
0.654
0.6655
0.6225
0.8140000000000001
0.4875
0.5755
0.5495
0.6245
0.6815
0.639
0.559
0.733
0.6365000000000001
0.7995
0.5345
0.5345
0.6585
0.6445
0.6155
0.7045
0.6125
0.6795
0.903
0.8125
0.7615000000000001
0.787
0.9115
0.7905
0.674
0.7995
0.882
0.775
0.8455
0.9025
0.9195
0.8715
0.8555
0.704
0.7255
0.7335
0.539
0.7435
0.671
0.437
0.3125
0.032
0.0755
0.4265
1.305
1.2545
1.5335
1.2485
1.243
0.989
0.9435
0.8200000000000001
0.7435
0.543
0.603
0.3255
0.2485
0.181
0.242
0.2335
0.2245
0.1465
0.0
0.0455
0.1335
0.0
0.0
0.0
0.005
0.0
0.0
0.07200000000000001
0.0
0.0455
0.0
0.0
0.0
0.015
0.09
0.0
0.0
0.0
0.0
0.122
0.0
0.0
0.011
0.0
0.0
0.0
0.197
0.464
0.2915
0.254
0.0055
0.17450000000000002
0.17450000000000002
0.2325
0.20450000000000002
0.1515
0.5285
0.2165
0.395
0.5355
0.723
0.8295
0.598
0.64
0.865
0.6295000000000001
0.668
0.747
0.8545
0.8795000000000001
0.84
0.8065
0.7455
0.757
0.8270000000000001
0.7735
0.8160000000000001
0.905
0.8485
0.8275
0.9355
0.8425
0.9410000000000001
0.9555
0.9510000000000001
0.994
0.9435
0.9375
0.8845000000000001
0.8515
0.9425
0.8655
0.514
0.1
0.0
0.47050000000000003
1.0915
1.28
1.379
1.4025
0.9605
1.323
0.9475
1.0365
0.6955
0.5710000000000001
0.7315
0.47900000000000004
0.182
0.4905
0.225
0.3885
0.094
0.231
0.2
0.182
0.0675
0.062
0.114
0.0
0.0305
0.0895
0.0
0.081
0.0
0.036000000000000004
0.017
0.0
0.2185
0.016
0.095
0.074
0.027
0.0
0.0
0.128
0.0
0.08
0.0
0.0395
0.0
0.0
0.1715
0.5015000000000001
0.481
0.14150000000000001
0.0315
0.14100000000000001
0.044
0.196
0.2205
0.428
0.3655
0.33
0.6645
0.591
0.6865
0.7985
0.548
0.775
0.6925
0.507
0.655
0.7835
0.6465
0.744
0.6425
0.7595000000000001
0.577
0.7010000000000001
0.731
0.667
0.619
0.5675
0.6295000000000001
0.5365
0.6575
0.7145
0.7085
0.7515000000000001
0.8945000000000001
0.7155
0.8165
0.6435
0.7285
0.718
0.729
0.6715
0.612
0.6990000000000001
0.7155
0.8255
0.937
0.7875
0.772
0.6565
0.636
0.6945
0.607
0.31
0.1695
0.048
0.0
0.293
0.548
1.099
1.3915
1.3685
1.356
1.1380000000000001
1.0495
1.0455
0.9425
0.9465
0.907
0.77
0.4245
0.5915
0.259
0.2805
0.295
0.1565
0.28350000000000003
0.057
0.297
0.047
0.014
0.0
0.0
0.0425
0.002
0.0
0.0555
0.0
0.0165
0.0
0.0
0.0
0.0
0.0
0.0
0.023
0.0
0.0
0.1845
0.406
0.2475
0.0
0.0
0.05
0.058
0.275
0.169
0.27
0.156
0.2945
0.4565
0.619
0.6925
0.6075
0.5855
0.7335
0.6930000000000001
0.5775
0.585
0.7935
0.623
0.842
0.4675
0.627
0.8745
0.6095
0.6615
0.67
0.5815
0.761
0.6995
0.6505
0.633
0.7305
0.73
0.7155
0.7435
0.7995
0.6515
0.7975
0.7365
0.8365
0.7145
0.602
0.7255
0.8615
0.7245
0.8395
0.6365000000000001
0.7545000000000001
0.7835
0.4395
0.277
0.0
0.1925
0.709
1.3545
1.3725
1.1545
1.5255
1.1035
1.035
0.795
0.7605000000000001
0.7615000000000001
0.597
0.3125
0.33
0.28550000000000003
0.17450000000000002
0.23800000000000002
0.0665
0.1545
0.28600000000000003
0.0
0.0845
0.0905
0.0945
0.0405
0.1005
0.0
0.0
0.0
0.0
0.0
0.0
0.0245
0.0
0.11850000000000001
0.0415
0.095
0.017
0.0
0.055
0.136
0.0
0.0
0.0045000000000000005
0.0
0.0
0.0
0.2515
0.541
0.369
0.0
0.0
0.10400000000000001
0.0195
0.07
0.2235
0.4475
0.308
0.5015000000000001
0.6455
0.7625000000000001
0.6305000000000001
0.7115
0.7405
0.6445
0.655
0.681
0.5675
0.7725
0.8205
0.657
0.7035
0.7395
0.7115
0.6930000000000001
0.7515000000000001
0.7415
0.749
0.882
0.8415
0.961
0.9205
0.9495
0.734
0.974
0.715
0.885
0.9470000000000001
0.343
0.122
0.2695
1.1185
1.3625
1.395
1.0405
0.5445
0.5155
0.3955
0.41300000000000003
0.27
0.28400000000000003
0.163
0.2535
0.2245
0.2605
0.2415
0.2545
0.1045
0.001
0.061
0.105
0.0245
0.1515
0.0105
0.153
0.0
0.0
0.0
0.0
0.095
0.0745
0.0
0.0
0.001
0.0
0.018000000000000002
0.0
0.0
0.0
0.4585
0.4195
0.386
0.0
0.0095
0.148
0.14100000000000001
0.0
0.132
0.3305
0.0895
0.35100000000000003
0.5335
0.5835
0.63
0.645
0.523
0.6795
0.6265000000000001
0.5660000000000001
0.7365
0.5615
0.6705
0.6910000000000001
0.6555
0.6930000000000001
0.6795
0.8465
0.7815
0.711
0.64
0.7915
0.7565000000000001
0.7945
0.9225
0.7355
0.7295
0.854
0.679
0.8545
0.7795
0.7075
0.749
0.717
0.374
0.117
0.0
0.4235
0.7875
1.5905
1.303
1.3175000000000001
1.199
1.0255
0.8835000000000001
0.87
0.8145
0.8045
0.5655
0.325
0.335
0.327
0.17550000000000002
0.23500000000000001
0.225
0.28350000000000003
0.281
0.1275
0.0085
0.097
0.0
0.099
0.0
0.0655
0.094
0.0
0.0
0.039
0.0
0.0155
0.1115
0.023
0.0325
0.0
0.053
0.0
0.0
0.016
0.0
0.0
0.0
0.0405
0.0
0.0075
0.4385
0.2885
0.0
0.1255
0.3635
0.0
0.28400000000000003
0.2275
0.2305
0.4905
0.763
0.638
0.7425
0.765
0.779
0.775
0.885
0.8565
0.88
0.78
0.8865000000000001
0.8355
0.8115
1.008
0.8145
0.8175
1.0975
1.0755000000000001
1.0805
0.868
0.9365
0.835
0.7755
0.6395000000000001
0.2515
0.2975
0.5640000000000001
0.9275
1.429
1.3075
1.5095
1.3115
1.3705
0.9825
1.1275
0.77
0.727
0.8365
0.551
0.438
0.3655
0.2305
0.4045
0.184
0.219
0.1465
0.2675
0.063
0.1155
0.1805
0.1495
0.163
0.0
0.0
0.0
0.0465
0.033
0.003
0.0
0.0
0.0575
0.0
0.0
0.0
0.0
0.0
0.0
0.0775
0.0095
0.0
0.0
0.02
0.0
0.2715
0.372
0.3315
0.251
0.0
0.134
0.148
0.1905
0.2755
0.2745
0.2235
0.40850000000000003
0.3185
0.5895
0.5995
0.7095
0.7285
0.765
0.769
0.6970000000000001
0.641
0.604
0.597
0.624
0.671
0.736
0.678
0.5145
0.7105
0.6915
0.7645000000000001
0.7845
0.6940000000000001
0.7525000000000001
0.8270000000000001
0.7475
0.8200000000000001
0.7485
0.9005
0.7545000000000001
0.739
0.8345
0.902
0.9345
0.8025
0.7835
0.8485
0.7645000000000001
0.767
0.481
0.182
0.074
0.3535
0.6995
1.4435
1.6235
1.319
1.3205
1.1175
0.987
0.8765000000000001
0.7405
0.7235
0.593
0.2185
0.3055
0.168
0.209
0.34600000000000003
0.03
0.11950000000000001
0.0395
0.1445
0.0
0.041
0.0155
0.0
0.0
0.0
0.009000000000000001
0.0
0.10300000000000001
0.0685
0.016
0.0545
0.0
0.1095
0.07100000000000001
0.0
0.0
0.3175
0.41050000000000003
0.171
0.0
0.043000000000000003
0.0
0.14400000000000002
0.3905
0.1565
0.353
0.445
0.6095
0.7755
0.6085
0.6125
0.5785
0.742
0.8315
0.5630000000000001
0.6075
0.615
0.7235
0.7755
0.579
0.7585000000000001
0.662
0.8515
0.6425
0.7295
0.749
0.714
0.8190000000000001
0.7275
0.843
0.8925000000000001
0.778
0.858
0.8635
0.9025
0.8995
0.7825
0.8115
0.8825000000000001
0.734
0.6595
0.8335
0.4605
0.0585
0.0945
0.0
0.045
0.23950000000000002
1.1245
1.1245
1.5695000000000001
1.2345
1.315
1.206
1.1035
1.3085
0.908
0.9975
0.932
0.9015
0.8185
0.7635000000000001
0.5065000000000001
0.492
0.35150000000000003
0.334
0.39
0.367
0.28550000000000003
0.0755
0.2465
0.1105
0.17500000000000002
0.2105
0.0425
0.057
0.008
0.1695
0.12
0.1005
0.0225
0.1685
0.113
0.137
0.0
0.1015
0.0
0.0
0.0
0.0
0.0745
0.0135
0.0
0.0
0.0
0.049
0.1095
0.0
0.0
0.0375
0.0775
0.007
0.0
0.0
0.0
0.0
0.0
0.0
0.0
0.0
0.0
0.0
0.0
0.0
0.0
0.0
0.08
0.4405
0.3355
0.0
0.033
0.107
0.20350000000000001
0.0495
0.2645
0.23850000000000002
0.035
0.4925
0.34650000000000003
0.791
0.667
0.8135
0.6955
0.7045
0.7605000000000001
0.5725
0.7425
0.709
0.6930000000000001
0.747
0.7020000000000001
0.7995
0.621
0.7005
0.6980000000000001
0.774
0.8465
0.8605
0.787
0.8975
1.0075
0.8125
0.8355
0.785
0.8145
0.855
0.8270000000000001
0.7425
0.3265
0.0
1.387
0.9885
0.971
0.898
0.7135
0.7325
0.354
0.427
0.2505
0.189
0.3005
0.3235
0.1085
0.1345
0.2575
0.1335
0.0405
0.073
0.155
0.0
0.1565
0.1325
0.0
0.035
0.0
0.108
0.0395
0.0
0.122
0.0
0.0
0.0
0.0325
0.0
0.088
0.0
0.0
0.0
0.0
0.0
0.0
0.368
0.3355
0.4025
0.182
0.0
0.2275
0.1135
0.242
0.2465
0.11900000000000001
0.3675
0.31
0.659
0.6735
0.6215
0.7875
0.536
0.7865
0.5275
0.762
0.674
0.631
0.6655
0.8335
0.5645
0.8265
0.6235
0.7865
0.6775
0.7235
0.7635000000000001
0.768
0.738
0.783
0.8475
0.8125
0.794
0.9510000000000001
0.8270000000000001
0.8615
0.8345
0.704
0.909
0.8035
0.5195
0.2475
0.11800000000000001
0.1685
0.6055
1.2425
1.4455
1.3555
1.1835
1.0485
1.1155
0.9380000000000001
0.81
0.6995
0.729
0.6275000000000001
0.665
0.4455
0.3675
0.328
0.23600000000000002
0.21
0.0905
0.11950000000000001
0.23900000000000002
0.201
0.194
0.065
0.231
0.20700000000000002
0.10350000000000001
0.043000000000000003
0.1765
0.08750000000000001
0.093
0.0
0.0
0.0025
0.0855
0.0
0.008
0.0
0.082
0.0
0.015
0.073
0.0
0.0
0.0035
0.0
0.11950000000000001
0.0
0.0
0.0
0.04
0.074
0.31
0.297
0.265
0.10300000000000001
0.261
0.005
0.2415
0.3175
0.051500000000000004
0.47950000000000004
0.20450000000000002
0.4615
0.629
0.8165
0.6845
0.6415
0.7065
0.6095
0.781
0.7095
0.8295
0.7010000000000001
0.715
0.634
0.7285
0.8095
0.7035
0.8745
0.8045
0.6505
0.8875000000000001
0.9245
0.8155
0.8875000000000001
0.9285
0.6565
0.8785000000000001
0.9205
0.7785
0.619
0.2735
0.0
0.438
1.222
1.6015
1.3605
1.4205
1.3495
1.0595
0.8155
1.0515
0.751
0.9435
0.734
0.367
0.437
0.0845
0.34500000000000003
0.278
0.0
0.1695
0.156
0.316
0.032
0.0
0.0
0.0
0.0
0.0015
0.053
0.0
0.0
0.0545
0.025
0.0
0.0
0.17550000000000002
0.1165
0.0
0.0
0.0
0.0
0.0985
0.0
0.0
0.0245
0.0
0.0
0.0
0.1365
0.39
0.4515
0.2325
0.0
0.1915
0.0
0.17450000000000002
0.2155
0.4635
0.258
0.41250000000000003
0.5195
0.7525000000000001
0.8285
0.7345
0.8285
0.6905
0.974
0.6715
0.6155
0.7585000000000001
0.8055
0.6775
0.806
0.8555
0.7435
0.8965
0.7455
0.7365
0.847
0.7805
0.673
0.7625000000000001
0.737
0.7365
0.717
0.769
0.841
0.7075
0.865
0.8765000000000001
0.7595000000000001
0.7575000000000001
0.835
0.748
0.639
0.812
0.7095
0.6235
0.8270000000000001
0.6655
0.8135
0.5565
0.4035
0.223
0.0
0.0
0.29
0.6955
1.2965
1.4525000000000001
1.2665
1.0685
1.0595
1.0155
0.967
0.7515000000000001
0.7505000000000001
0.63
0.7375
0.47550000000000003
0.2555
0.362
0.221
0.2335
0.333
0.109
0.0
0.0725
0.113
0.07
0.0605
0.0
0.003
0.05
0.0
0.0
0.0
0.0
0.0135
0.061
0.0315
0.0
0.0
0.11850000000000001
0.028
0.0265
0.0
0.0
0.1695
0.44
0.4275
0.153
0.10250000000000001
0.0
0.2795
0.28350000000000003
0.3005
0.274
0.329
0.5745
0.6535
0.6970000000000001
0.7115
0.8105
0.6125
0.8035
0.7215
0.8635
0.933
0.7115
0.714
0.767
0.874
0.6895
0.8845000000000001
0.9335
0.7185
0.8735
0.7325
0.8085
0.805
0.9125
0.8685
0.9045
0.8205
0.979
0.875
1.0005
0.8140000000000001
0.8405
0.885
0.877
0.425
0.3355
0.109
0.111
0.3535
1.1585
1.2455
1.3765
1.207
1.058
1.0565
1.0325
0.915
0.5695
0.6375000000000001
0.633
0.3675
0.2215
0.23450000000000001
0.2755
0.28350000000000003
0.179
0.133
0.139
0.117
0.0935
0.0
0.1405
0.057
0.07050000000000001
0.099
0.0155
0.0
0.0
0.0
0.1095
0.0285
0.0
0.0
0.0
0.0
0.0
0.031
0.0665
0.0345
0.0
0.0
0.0
0.0
0.0
0.097
0.1475
0.2315
0.213
0.156
0.0415
0.0895
0.156
0.1265
0.438
0.33
0.3565
0.6785
0.621
0.594
0.7835
0.5065000000000001
0.5875
0.605
0.707
0.8170000000000001
0.5825
0.713
0.5845
0.6615
0.754
0.5670000000000001
0.6865
0.6525
0.5175
0.6705
0.8565
0.8045
0.7685
0.7835
0.8255
0.7195
0.8875000000000001
0.797
0.8235
0.8905000000000001
0.9375
0.7555000000000001
0.6745
0.9775
0.6055
0.41000000000000003
0.131
0.0115
0.5425
0.443
1.0150000000000001
1.2705
0.753
0.87
0.66
0.2175
0.20450000000000002
0.28450000000000003
0.2015
0.326
0.14
0.223
0.2455
0.105
0.11750000000000001
0.027
0.0
0.0
0.0
0.08700000000000001
0.0095
0.0
0.021500000000000002
0.14150000000000001
0.0625
0.0
0.0
0.0085
0.0
0.0
0.0545
0.0
0.032
0.0
0.109
0.0
0.0
0.218
0.1345
0.557
0.4295
0.056
0.0
0.1575
0.0895
0.2155
0.23900000000000002
0.4425
0.366
0.3965
0.8055
0.7085
0.6725
0.679
0.7985
0.6965
0.6375000000000001
0.7385
0.654
0.835
0.7515000000000001
0.639
0.7775
0.5995
0.7905
0.8595
0.8240000000000001
0.807
0.683
0.8775000000000001
0.798
0.77
0.8270000000000001
0.9165
0.9425
0.6565
0.8465
0.8675
0.8145
0.8365
0.7715
0.772
0.5595
0.1165
0.0315
0.131
0.7265
1.2805
1.5745
1.2635
1.243
0.961
0.8225
1.0505
0.8475
0.8345
0.6675
0.6925
0.3105
0.451
0.253
0.4205
0.4665
0.41150000000000003
0.28300000000000003
0.403
0.212
0.231
0.043500000000000004
0.2555
0.3015
0.121
0.1515
0.2135
0.16
0.228
0.011
0.23750000000000002
0.1685
0.1385
0.1225
0.0495
0.0
0.051500000000000004
0.0235
0.0955
0.0
0.02
0.0
0.0555
0.0
0.024
0.0005
0.001
0.0
0.0
0.0
0.0
0.0
0.0
0.0
0.0
0.0
0.0
0.0
0.0
0.2225
0.3945
0.3215
0.1015
0.1375
0.20700000000000002
0.0495
0.0
0.0
0.1125
0.1835
0.487
0.6985
0.7145
0.774
0.7675000000000001
0.6555
0.6915
0.6745
0.7020000000000001
0.8155
0.6655
0.7010000000000001
0.7905
0.7285
0.5975
0.7955
0.718
0.7975
0.7355
0.7325
0.8705
0.6815
0.901
0.8160000000000001
0.9775
0.898
0.8805000000000001
0.7805
0.79
0.833
0.8475
0.8195
0.7875
0.582
0.161
0.3035
1.0675000000000001
1.1460000000000001
1.4095
1.2550000000000001
0.9095
0.8775000000000001
0.7335
0.5555
0.2615
0.1965
0.3555
0.3325
0.14250000000000002
0.313
0.133
0.18
0.09
0.0
0.065
0.0
0.0
0.0
0.0
0.1605
0.0795
0.0285
0.015
0.0
0.0
0.1215
0.0035
0.051000000000000004
0.0125
0.05
0.0
0.0
0.0655
0.006
0.13
0.3265
0.4195
0.1345
0.0
0.123
0.024
0.003
0.20450000000000002
0.23850000000000002
0.3775
0.247
0.4565
0.631
0.7115
0.4935
0.773
0.584
0.6385000000000001
0.8155
0.7125
0.7525000000000001
0.5655
0.5915
0.5275
0.6205
0.4575
0.7215
0.766
0.6645
0.5505
0.6265000000000001
0.6215
0.6475
0.5855
0.6890000000000001
0.6025
0.795
0.646
0.7875
0.7155
0.6685
0.7315
0.7685
0.6205
0.8465
0.6655
0.8275
0.68
0.1995
0.0
0.0
0.299
0.9915
1.3235000000000001
1.3915
1.3715
0.963
0.9875
1.081
0.846
0.6805
0.8655
0.4965
0.426
0.3955
0.122
0.1805
0.3385
0.2655
0.4035
0.1395
0.2435
0.1445
0.1245
0.124
0.152
0.0345
0.0
0.109
0.013000000000000001
0.139
0.0
0.0
0.03
0.04
0.046
0.0
0.0
0.0
0.099
0.0
0.0145
0.0
0.0135
0.0
0.0
0.0175
0.074
0.0
0.0
0.108
0.04
0.0
0.0425
0.3175
0.4545
0.362
0.1835
0.008
0.046
0.0
0.314
0.1985
0.3885
0.4015
0.4345
0.8035
0.6815
0.6835
0.8225
0.7035
0.6535
0.7575000000000001
0.7655000000000001
0.676
0.63
0.762
0.8145
0.8130000000000001
0.7195
1.0625
0.6945
0.854
1.0070000000000001
1.044
0.8655
0.862
0.885
0.395
0.20550000000000002
0.0645
0.459
0.9295
1.239
1.2945
1.4475
1.3805
1.2475
1.2955
1.2895
0.8915000000000001
0.9465
0.9915
0.972
0.7555000000000001
0.523
0.4555
0.536
0.163
0.2755
0.23550000000000001
0.19
0.1545
0.256
0.1925
0.215
0.0465
0.0315
0.1335
0.084
0.14100000000000001
0.0125
0.13
0.074
0.0895
0.11800000000000001
0.0
0.0
0.002
0.0
0.0
0.0
0.0345
0.0
0.14250000000000002
0.0
0.0185
0.0
0.0
0.0
0.0
0.008
0.08
0.055
0.0335
0.0
0.0555
0.0
0.0735
0.0
0.0045000000000000005
0.0
0.0125
0.0
0.0
0.0
0.0
0.0
0.0
0.0
0.2805
0.425
0.40700000000000003
0.1695
0.2465
0.0605
0.005
0.246
0.0645
0.251
0.2255
0.1785
0.1545
0.41000000000000003
0.548
0.759
0.41000000000000003
0.674
0.6025
0.5595
0.733
0.669
0.7035
0.8085
0.7030000000000001
0.532
0.7795
0.6035
0.6555
0.612
0.7705
0.7595000000000001
0.7155
0.8435
0.8645
0.8055
0.7915
0.8615
0.8745
0.6845
0.843
0.8585
0.876
0.8235
0.8145
0.8265
0.425
0.257
0.0
0.5085000000000001
0.8230000000000001
1.4115
1.391
1.3065
1.2715
1.1565
0.9955
0.8755000000000001
0.763
0.923
0.4465
0.506
0.2135
0.2715
0.0935
0.326
0.28450000000000003
0.1685
0.2125
0.23700000000000002
0.146
0.0495
0.0425
0.0
0.0
0.162
0.037
0.0835
0.0725
0.0
0.0
0.0405
0.0
0.004
0.1775
0.0
0.0
0.1255
0.0
0.025500000000000002
0.0
0.1015
0.4005
0.1
0.1795
0.16
0.2975
0.1995
0.402
0.718
0.6275000000000001
0.6275000000000001
0.5745
0.484
0.611
0.5845
0.6195
0.8105
0.6595
0.7355
0.638
0.9115
0.7855
0.723
0.7885
0.662
0.8355
0.8465
0.7725
0.7845
0.838
0.7605000000000001
0.8135
0.8235
0.857
0.8130000000000001
0.8285
0.9005
0.7135
0.8205
0.6305000000000001
0.5595
0.3265
0.2165
0.1385
0.1495
0.531
0.748
1.1745
1.2295
1.3825
1.094
1.21
1.2595
0.9515
1.0275
1.0135
0.9705
0.847
0.7195
0.75
0.6575
0.713
0.5155
0.327
0.2575
0.264
0.2775
0.12
0.1235
0.123
0.1205
0.0
0.1325
0.0
0.0085
0.0945
0.074
0.0
0.0
0.007
0.0
0.0
0.053
0.0365
0.0
0.0805
0.021
0.0635
0.0
0.0
0.0
0.0
0.029500000000000002
0.0
0.0
0.0
0.0
0.035
0.1565
0.3675
0.2895
0.1445
0.0
0.1545
0.1895
0.24
0.021
0.4675
0.17
0.47100000000000003
0.6455
0.7625000000000001
0.8015
0.7925
0.7555000000000001
0.8035
0.8875000000000001
0.5385
0.6775
0.6185
0.7285
0.609
0.8260000000000001
0.591
0.5825
0.6385000000000001
0.633
0.6755
0.7635000000000001
0.5795
0.7075
0.709
0.5605
0.6395000000000001
0.6865
0.739
0.7595000000000001
0.654
0.771
0.668
0.583
0.5835
0.795
0.7145
0.7055
0.8725
0.7000000000000001
0.8205
0.6995
0.79
0.779
0.8425
0.8625
0.7305
0.7335
0.854
0.718
0.6615
0.432
0.20700000000000002
0.14350000000000002
0.0445
0.0
0.451
1.091
1.3015
1.3345
1.272
0.96
0.9675
0.765
0.7875
0.7555000000000001
0.485
0.643
0.246
0.22
0.1535
0.223
0.2775
0.136
0.17200000000000001
0.0335
0.035
0.0935
0.036000000000000004
0.14400000000000002
0.0
0.0
0.053
0.0
0.0
0.1075
0.032
0.1105
0.026000000000000002
0.0
0.0855
0.0
0.0115
0.032
0.0
0.0
0.0
0.0
0.0
0.054
0.6135
0.343
0.0
0.0
0.0745
0.0425
0.0925
0.049
0.0805
0.4455
0.317
0.3995
0.5535
0.6195
0.5695
0.552
0.5915
0.5215
0.551
0.6775
0.5755
0.7325
0.7535000000000001
0.757
0.628
0.534
0.7555000000000001
0.6575
0.763
0.6135
0.643
0.8195
0.687
0.755
0.7875
0.739
0.7755
0.7020000000000001
0.7475
0.683
0.877
0.638
0.8355
0.4575
0.3835
0.0615
0.2425
0.5805
1.1015
1.5405
1.1975
1.2785
1.2515
1.0845
1.0375
0.8845000000000001
0.7755
0.6425
0.7005
0.1605
0.4025
0.3115
0.34850000000000003
0.3175
0.20400000000000001
0.2335
0.388
0.182
0.2725
0.234
0.1515
0.1105
0.106
0.022
0.0
0.10400000000000001
0.0
0.0125
0.0
0.001
0.0305
0.0
0.012
0.0
0.0
0.032
0.0
0.006
0.0
0.0
0.0
0.0185
0.001
0.0105
0.0
0.026000000000000002
0.0405
0.0115
0.0925
0.359
0.491
0.4995
0.107
0.0465
0.278
0.34700000000000003
0.266
0.4295
0.3865
0.35150000000000003
0.47450000000000003
0.7785
0.677
0.8035
0.6945
0.766
0.655
0.8195
0.8245
0.7635000000000001
0.911
0.741
0.7585000000000001
0.757
0.7885
0.8195
0.8975
0.7575000000000001
0.7745
0.811
0.8255
0.8505
0.8575
0.9585
0.9005
0.811
0.9705
0.8715
0.8260000000000001
0.8155
0.9865
0.8715
0.7935
0.6325000000000001
0.2295
0.10400000000000001
0.0185
0.727
1.2195
1.3965
1.3695
1.3975
0.8865000000000001
0.84
0.9575
0.9185
0.7995
0.6950000000000001
0.6205
0.47000000000000003
0.1875
0.3075
0.1695
0.234
0.2735
0.1765
0.23700000000000002
0.0315
0.0965
0.0615
0.0
0.11850000000000001
0.055
0.0
0.0105
0.0
0.0
0.0
0.0
0.0
0.0
0.0
0.0
0.028
0.5395
0.2125
0.0
0.0325
0.0
0.035
0.0985
0.179
0.20800000000000002
0.3765
0.5035000000000001
0.5165
0.6940000000000001
0.6315000000000001
0.6645
0.6075
0.7105
0.6855
0.5995
0.6915
0.732
0.7505000000000001
0.7355
0.7065
0.8625
0.7855
0.726
0.9550000000000001
0.721
0.7075
0.843
0.9115
0.8310000000000001
0.9295
0.8715
0.8025
0.886
0.7445
0.7735
0.7865
0.891
0.7665000000000001
0.2315
0.166
0.044
0.242
0.9625
1.3005
1.2285
1.305
1.1775
1.1325
0.9355
0.8055
0.5565
0.717
0.513
0.517
0.124
0.1805
0.2145
0.0975
0.28750000000000003
0.1345
0.1485
0.0115
0.0755
0.0
0.0
0.055
0.0
0.0385
0.007
0.0
0.0
0.003
0.0
0.0
0.0
0.0135
0.0
0.0
0.043500000000000004
0.0
0.08750000000000001
0.0
0.0795
0.1045
0.08700000000000001
0.097
0.0
0.005
0.176
0.232
0.391
0.332
0.01
0.17450000000000002
0.2245
0.179
0.1235
0.159
0.2765
0.4415
0.40700000000000003
0.846
0.796
0.6245
0.8405
0.589
0.7805
0.6535
0.677
0.7255
0.6585
0.7335
0.8465
0.786
0.602
0.8235
0.7295
0.742
0.7425
0.645
0.7825
0.8355
0.8260000000000001
0.9345
0.834
0.745
0.889
0.9075
0.9295
0.8335
0.8865000000000001
0.1525
0.3555
0.999
1.4985
1.5190000000000001
1.2855
1.0205
0.8895000000000001
0.3645
0.378
0.3565
0.1815
0.23500000000000001
0.3095
0.28350000000000003
0.2705
0.227
0.1315
0.0225
0.244
0.138
0.0
0.053
0.037
0.112
0.1865
0.0495
0.17350000000000002
0.0
0.0
0.0545
0.0055
0.0
0.0
0.0
0.189
0.0
0.025
0.0
0.0
0.1115
0.051000000000000004
0.0
0.0
0.0
0.0
0.0
0.0
0.0
0.0
0.0
0.136
0.0
0.2775
0.5465
0.4025
0.17550000000000002
0.0
0.015
0.197
0.0
0.0045000000000000005
0.2755
0.0675
0.1515
0.08700000000000001
0.0725
0.2895
0.28800000000000003
0.5315
0.7030000000000001
0.6745
0.6875
0.7465
0.7000000000000001
0.578
0.606
0.8255
0.6455
0.5665
0.7215
0.7785
0.6365000000000001
0.7385
0.671
0.6715
0.8025
0.6925
0.6555
0.742
0.8075
0.7305
0.7995
0.7615000000000001
0.7925
0.8255
0.7635000000000001
0.8805000000000001
0.8155
0.7085
0.8055
0.801
0.6910000000000001
0.1815
0.228
0.0
0.2495
0.9575
1.247
1.3195000000000001
1.2895
1.1725
1.053
0.8245
0.915
0.7495
0.7775
0.7685
0.3355
0.247
0.167
0.20450000000000002
0.37
0.2305
0.3255
0.063
0.229
0.132
0.191
0.0975
0.127
0.0
0.159
0.076
0.0225
0.0
0.0005
0.0725
0.026000000000000002
0.0
0.0085
0.0375
0.0
0.0
0.0
0.0
0.0
0.042
0.0
0.0535
0.0
0.07
0.0
0.0
0.0585
0.035
0.06
0.0
0.0
0.0115
0.0
0.0
0.0
0.0
0.0
0.0
0.0
0.0
0.0155
0.1245
0.3055
0.23650000000000002
0.2325
0.077
0.0
0.0
0.039
0.0
0.089
0.1915
0.1095
0.147
0.2975
0.34900000000000003
0.4515
0.3355
0.61
0.7895
0.5965
0.638
0.5855
0.4345
0.74
0.6915
0.6795
0.8015
0.721
0.89
0.787
0.7795
0.888
0.8300000000000001
1.0535
0.854
0.9480000000000001
0.7075
0.457
0.08700000000000001
0.0
0.6225
1.2965
1.3855
1.239
1.454
1.0855000000000001
1.004
0.8230000000000001
0.8675
0.8095
0.7255
0.677
0.6595
0.4515
0.3745
0.17250000000000001
0.2415
0.14350000000000002
0.2715
0.0935
0.2175
0.0625
0.039
0.0
0.0
0.0
0.0
0.0
0.0
0.004
0.0
0.0
0.0
0.0
0.0
0.0
0.0
0.0
0.0
0.0
0.0
0.0
0.1215
0.0
0.0
0.0
0.0
0.0245
0.0
0.0
0.1825
0.3135
0.28150000000000003
0.1365
0.0285
0.255
0.3645
0.0165
0.539
0.2485
0.445
0.4205
0.776
0.7415
0.6635
0.6435
0.8385
0.7455
0.618
0.627
0.555
0.8345
0.709
0.7405
0.8310000000000001
0.642
0.6930000000000001
0.9275
0.7595000000000001
0.742
0.6165
0.8785000000000001
0.629
0.7935
0.7005
0.742
0.8125
0.9
0.7515000000000001
0.9175
0.9505
0.6495
0.809
0.8965
0.8035
0.4285
0.233
0.0
0.241
0.705
1.2215
1.5365
1.2975
1.231
1.287
1.201
0.9625
1.0285
0.7235
0.986
0.6535
0.5690000000000001
0.396
0.4
0.4315
0.318
0.3065
0.2245
0.378
0.147
0.184
0.1335
0.1695
0.0915
0.1555
0.1805
0.0
0.0
0.099
0.0395
0.0
0.07150000000000001
0.1205
0.0
0.0
0.1925
0.0
0.0
0.0805
0.0
0.036000000000000004
0.0
0.08650000000000001
0.0
0.4865
0.228
0.1785
0.296
0.0
0.35100000000000003
0.41250000000000003
0.3565
0.5185
0.425
0.5730000000000001
0.8615
0.6435
0.56
0.7345
0.7035
0.7485
0.8525
0.6595
0.8525
0.6485
0.7405
0.6355000000000001
0.715
0.8185
0.878
0.757
0.7945
0.8045
0.783
0.854
0.8995
0.6455
0.901
0.886
1.0145
0.9075
0.7665000000000001
0.774
0.8245
0.7865
0.9025
0.5355
0.035
0.0
0.127
0.5315
1.375
1.5085
1.3995
1.1935
1.1935
1.069
0.9470000000000001
0.7565000000000001
0.779
0.5740000000000001
0.5335
0.2785
0.2125
0.23750000000000002
0.1925
0.1905
0.243
0.1535
0.08600000000000001
0.0795
0.1765
0.012
0.0685
0.14150000000000001
0.1805
0.0
0.0
0.0
0.0555
0.0145
0.0315
0.0
0.0
0.0165
0.065
0.0
0.0
0.0
0.0275
0.0
0.0
0.023
0.023
0.1165
0.0285
0.0
0.0
0.0
0.05
0.079
0.001
0.14400000000000002
0.0
0.0
0.19
0.0
0.0
0.0
0.0
0.192
0.392
0.3875
0.47100000000000003
0.0205
0.1805
0.049
0.1975
0.3365
0.247
0.264
0.441
0.5145
0.423
0.742
0.7425
0.5785
0.6990000000000001
0.7655000000000001
0.526
0.6635
0.6915
0.7345
0.6075
0.8865000000000001
0.5855
0.812
0.6915
0.741
0.6995
0.752
0.7785
0.6915
0.8635
0.7935
0.6415
0.879
0.8475
0.856
0.833
0.7615000000000001
0.8655
0.9085
0.8035
0.6735
0.9375
0.5635
0.4255
0.0
0.326
0.8165
1.3455
1.403
1.1965000000000001
1.221
1.1135
0.9785
0.867
0.8230000000000001
0.3855
0.382
0.4005
0.3175
0.2295
0.196
0.057
0.1895
0.1995
0.0445
0.0895
0.1655
0.0
0.2275
0.0
0.0405
0.0335
0.1125
0.0935
0.046
0.0525
0.025
0.0115
0.0
0.0
0.0
0.062
0.0
0.0
0.11750000000000001
0.2235
0.392
0.1985
0.0315
0.28450000000000003
0.176
0.399
0.0945
0.3135
0.3095
0.47350000000000003
0.6910000000000001
0.852
0.6475
0.711
0.6415
0.7295
0.7305
0.8015
0.5895
0.6575
0.7525000000000001
0.733
0.6890000000000001
0.733
0.7175
0.8465
0.6205
0.8275
0.6675
0.7815
0.749
0.781
0.751
0.5795
0.8035
0.7995
0.7735
0.7345
0.7035
0.7205
0.7355
0.68
0.6695
0.7975
0.8245
0.7010000000000001
0.8345
0.803
0.8280000000000001
0.7295
0.6565
0.7995
0.7235
0.7185
0.595
0.6765
0.715
0.7135
0.6135
0.5025000000000001
0.17450000000000002
0.0585
0.0
0.048
0.2975
0.752
1.3155000000000001
1.486
1.4485000000000001
1.2495
1.0875000000000001
1.2345
0.7775
0.9355
0.7345
0.6775
0.6875
0.317
0.35150000000000003
0.188
0.41250000000000003
0.1015
0.1295
0.0905
0.1445
0.1575
0.049
0.136
0.0565
0.0535
0.0
0.0
0.0
0.0
0.0685
0.0315
0.0
0.0995
0.0
0.0
0.0
0.0
0.0
0.0
0.0
0.0
0.0
0.0
0.0
0.0535
0.0
0.0
0.0
0.23600000000000002
0.3665
0.529
0.126
0.21
0.176
0.195
0.4925
0.0545
0.402
0.2915
0.3905
0.582
0.8485
0.7765
0.8375
0.801
0.9265
0.872
0.7755
0.8925000000000001
0.7105
0.9205
0.9755
0.7325
0.8865000000000001
0.906
0.8170000000000001
0.875
0.8495
0.788
0.9855
0.9495
1.0925
0.902
0.9975
0.9560000000000001
0.9560000000000001
0.3645
0.067
0.0
0.5035000000000001
0.802
1.197
1.4995
1.3955
1.3445
1.3015
1.2525
1.2835
1.1335
1.0555
0.7875
0.8235
0.6305000000000001
0.6595
0.5695
0.281
0.4925
0.35100000000000003
0.394
0.1255
0.41350000000000003
0.227
0.157
0.2445
0.2085
0.294
0.1075
0.0475
0.122
0.075
0.0
0.0975
0.0
0.0
0.0285
0.0
0.018000000000000002
0.059000000000000004
0.0265
0.0
0.0
0.0
0.0
0.0245
0.0
0.0
0.0
0.0
0.0
0.056
0.0
0.218
0.28750000000000003
0.2085
0.253
0.1115
0.215
0.3325
0.23600000000000002
0.492
0.3265
0.4865
0.671
0.834
0.7595000000000001
0.6585
0.8195
0.7565000000000001
0.7055
0.5625
0.907
0.6995
0.727
0.7915
0.6815
0.8355
0.751
0.7995
0.6685
0.857
0.8455
0.8150000000000001
0.7365
0.9005
0.771
0.7195
0.6755
0.7815
0.8835000000000001
0.7935
0.8170000000000001
0.6445
0.8205
0.6685
0.9105
0.7415
0.807
0.8915000000000001
0.7215
0.809
0.7375
0.7020000000000001
0.8065
0.7020000000000001
0.34500000000000003
0.1685
0.0
0.28
1.1275
1.3335000000000001
1.6645
1.4435
1.2855
0.9615
1.0545
1.046
0.882
0.7010000000000001
0.6365000000000001
0.3615
0.5035000000000001
0.34950000000000003
0.4215
0.352
0.212
0.2145
0.23800000000000002
0.23500000000000001
0.105
0.1835
0.131
0.0655
0.159
0.08650000000000001
0.0
0.075
0.0325
0.092
0.0825
0.1355
0.03
0.135
0.025500000000000002
0.0
0.0
0.0415
0.0445
0.0185
0.059500000000000004
0.0385
0.0
0.0
0.081
0.21
0.0
0.28300000000000003
0.0
0.28400000000000003
0.37
0.4655
0.538
0.8785000000000001
0.718
0.598
0.6285000000000001
0.653
0.552
0.8310000000000001
0.6415
0.636
0.627
0.6915
0.743
0.742
0.727
0.713
0.8365
0.857
0.8345
0.794
0.7995
0.758
0.8855000000000001
0.8210000000000001
0.8845000000000001
0.9535
0.869
0.7030000000000001
0.806
0.7935
0.7915
0.4485
0.525
0.16
0.026000000000000002
0.03
0.1955
0.599
1.1745
1.2395
1.421
1.2595
1.1345
1.1895
1.1085
0.8545
0.9835
0.8185
0.7785
0.901
0.7165
0.6255000000000001
0.618
0.6845
0.5495
0.437
0.1785
0.289
0.266
0.399
0.1655
0.183
0.2545
0.214
0.1455
0.2235
0.112
0.1505
0.1355
0.08700000000000001
0.0
0.005
0.108
0.0575
0.0335
0.0
0.0
0.0
0.06
0.0
0.0
0.0005
0.0
0.0
0.0
0.0185
0.0885
0.047
0.11850000000000001
0.0
0.0
0.0
0.0445
0.0
0.0
0.0
0.0
0.257
0.154
0.211
0.268
0.0285
0.2275
0.058
0.2515
0.07050000000000001
0.41450000000000004
0.5595
0.5275
0.601
0.8885000000000001
0.6910000000000001
0.8545
0.6885
0.8165
0.8445
0.7835
0.7265
0.6685
0.7815
0.8005
0.7755
0.7905
0.8395
0.9195
0.8465
0.852
0.837
0.8185
0.846
0.8815000000000001
0.9435
0.9015
0.8005
1.0115
0.8515
0.9235
0.966
0.9035
0.8955000000000001
0.8985
0.893
0.6285000000000001
0.2495
0.0785
0.4865
1.52
1.171
1.0435
0.8845000000000001
0.8845000000000001
0.9015
0.5355
0.36
0.3725
0.1895
0.3055
0.334
0.25
0.28700000000000003
0.23700000000000002
0.1505
0.179
0.0
0.1495
0.001
0.1925
0.0915
0.0395
0.093
0.0545
0.0
0.023
0.0
0.0
0.0
0.0
0.0055
0.0
0.0
0.0
0.126
0.262
0.4925
0.3275
0.0885
0.033
0.077
0.35050000000000003
0.47350000000000003
0.1525
0.47650000000000003
0.23500000000000001
0.4315
0.517
0.8805000000000001
0.637
0.6215
0.8525
0.6395000000000001
0.7055
0.635
0.6595
0.6575
0.768
0.725
0.6375000000000001
0.8150000000000001
0.6595
0.6475
0.5975
0.8805000000000001
0.6655
0.7315
0.7655000000000001
0.8175
0.9075
0.6725
0.9225
0.8445
0.771
0.8085
0.705
0.833
0.6945
0.8645
0.7835
0.7435
0.336
0.0365
0.0
0.47500000000000003
1.182
1.5035
1.2265
1.4975
1.175
1.1275
1.0295
0.9565
0.7005
0.849
0.627
0.295
0.47850000000000004
0.2445
0.3305
0.2085
0.2265
0.29
0.2715
0.325
0.191
0.0415
0.08600000000000001
0.07200000000000001
0.0975
0.2175
0.0015
0.0655
0.0
0.0
0.0
0.0
0.0
0.0395
0.027
0.1495
0.1225
0.001
0.0165
0.11850000000000001
0.0
0.1465
0.0
0.0455
0.0
0.0
0.0605
0.0
0.0
0.0
0.3885
0.40950000000000003
0.314
0.0885
0.0745
0.198
0.1805
0.387
0.1575
0.3795
0.424
0.4515
0.8255
0.8845000000000001
0.882
0.7815
0.7385
0.7635000000000001
0.744
0.6970000000000001
0.8155
0.794
0.751
0.7905
0.7015
0.897
0.8155
0.8065
0.8365
1.022
0.8875000000000001
0.8895000000000001
1.036
0.9405
0.8705
0.783
0.38
0.259
0.1325
0.7665000000000001
1.43
1.2730000000000001
1.2655
1.127
1.1440000000000001
0.9875
1.025
1.0255
0.7575000000000001
0.5665
0.47950000000000004
0.2995
0.433
0.3285
0.1905
0.3935
0.359
0.2515
0.1255
0.10400000000000001
0.14200000000000002
0.225
0.28
0.0735
0.14
0.027
0.02
0.0775
0.0
0.025
0.202
0.0
0.147
0.0495
0.0305
0.0
0.0
0.0
0.0
0.0095
0.0
0.0
0.0
0.0
0.0
0.14100000000000001
0.062
0.3155
0.1245
0.23650000000000002
0.112
0.0725
0.1065
0.1265
0.2445
0.267
0.31
0.458
0.6815
0.5195
0.9095
0.7055
0.6235
0.7145
0.893
0.5775
0.6395000000000001
0.6275000000000001
0.6575
0.799
0.664
0.75
0.7155
0.7005
0.757
0.8025
0.8200000000000001
0.7405
0.834
0.5605
0.635
0.6755
0.879
0.6375000000000001
0.6355000000000001
0.5385
0.8215
0.7175
0.7595000000000001
0.7615000000000001
0.7215
0.7525000000000001
0.8845000000000001
0.805
0.86
0.765
0.7655000000000001
0.7625000000000001
0.801
0.8365
0.657
0.2405
0.1635
0.0
0.323
1.01
1.3705
1.2735
1.3205
1.3305
1.2645
0.975
0.9225
1.0715000000000001
0.6825
0.6655
0.3665
0.3345
0.17
0.387
0.211
0.28550000000000003
0.05
0.094
0.2085
0.1875
0.05
0.0955
0.03
0.1535
0.1475
0.08700000000000001
0.0195
0.0
0.1295
0.0
0.0
0.0
0.0
0.0495
0.0
0.0
0.043000000000000003
0.0
0.0
0.0395
0.0615
0.0
0.0
0.0635
0.4315
0.2025
0.2335
0.0785
0.203
0.47550000000000003
0.854
0.8035
0.9410000000000001
0.6985
0.8230000000000001
0.6925
0.721
0.7975
0.85
0.7875
0.7385
0.7645000000000001
0.8140000000000001
0.683
0.8755000000000001
0.8565
0.847
0.7020000000000001
0.9545
0.876
0.9115
0.7485
0.9465
0.9295
0.7105
0.9205
0.9560000000000001
0.9185
0.7475
0.931
0.8170000000000001
0.8150000000000001
0.783
0.461
0.0005
0.0
0.3595
1.054
1.4495
1.329
1.3425
1.2065000000000001
1.1565
1.0070000000000001
1.0765
0.6145
0.9235
0.8035
0.3225
0.2635
0.336
0.297
0.301
0.2455
0.3205
0.058
0.224
0.1155
0.0695
0.1855
0.1085
0.1015
0.20600000000000002
0.0
0.0
0.0
0.0
0.0
0.0
0.0
0.0
0.0375
0.0
0.0305
0.0
0.0
0.0
0.0
0.045
0.0
0.0
0.0
0.0
0.1075
0.17350000000000002
0.54
0.28400000000000003
0.4415
0.0
0.191
0.2285
0.127
0.254
0.2585
0.4235
0.6585
0.6575
0.8625
0.798
0.7825
0.762
0.8215
0.763
0.8385
0.9715
0.7985
0.7935
0.7205
0.7115
0.7495
0.8755000000000001
0.9435
0.8515
0.8785000000000001
0.8655
0.7515000000000001
0.8885000000000001
0.8285
0.8645
0.9435
1.051
0.8865000000000001
1.0285
0.935
0.8300000000000001
1.0925
0.7975
0.8535
0.8225
0.499
0.25
0.005
0.1675
0.7505000000000001
1.3955
1.459
1.299
1.327
1.1245
0.884
0.9595
0.8180000000000001
0.7915
0.493
0.546
0.41200000000000003
0.2935
0.28350000000000003
0.2455
0.295
0.1965
0.256
0.2285
0.3645
0.0
0.075
0.217
0.0
0.0115
0.2335
0.017
0.081
0.0375
0.0325
0.0
0.0
0.0225
0.07050000000000001
0.0325
0.0
0.0
0.0
0.0
0.0
0.059000000000000004
0.4005
0.374
0.3795
0.1095
0.0
0.0375
0.1665
0.0735
0.311
0.17300000000000001
0.47550000000000003
0.327
0.5405
0.6595
0.736
0.606
0.5705
0.7235
0.7915
0.8250000000000001
0.6045
0.6475
0.7375
0.7665000000000001
0.8145
0.5825
0.7405
0.8615
0.7835
0.798
0.7035
0.8565
0.7135
0.723
0.7275
0.8025
0.9895
0.8125
0.9125
0.8395
0.739
0.733
0.6525
0.8275
0.875
0.71
0.3905
0.0
0.0
0.11850000000000001
0.7185
1.2175
1.243
1.1945000000000001
1.2285
1.095
0.8955000000000001
0.8875000000000001
0.9485
0.6225
0.625
0.4005
0.268
0.2895
0.41050000000000003
0.0855
0.1
0.1115
0.28200000000000003
0.1655
0.113
0.0035
0.1005
0.1205
0.068
0.036000000000000004
0.0965
0.0805
0.0315
0.0455
0.0165
0.029500000000000002
0.124
0.0
0.0
0.0
0.002
0.0
0.0
0.0
0.0
0.0
0.0045000000000000005
0.139
0.0
0.0
0.0
0.0
0.054
0.0
0.0
0.0
0.0
0.0
0.3915
0.34550000000000003
0.396
0.34700000000000003
0.135
0.2405
0.3015
0.1835
0.20650000000000002
0.28150000000000003
0.40800000000000003
0.2775
0.759
0.6175
0.7785
0.618
0.806
0.6675
0.7625000000000001
0.67
0.671
0.7965
0.8170000000000001
0.8505
0.7275
0.803
0.8250000000000001
0.8140000000000001
0.778
0.8225
0.85
0.7975
0.7095
0.9115
0.79
0.891
0.868
0.844
1.0405
0.8285
0.7295
0.7655000000000001
0.6575
0.0455
0.28750000000000003
0.85
1.3075
1.4195
1.2765
1.129
0.978
0.965
1.0515
1.0010000000000001
0.685
0.637
0.493
0.23700000000000002
0.3605
0.312
0.4015
0.1595
0.1345
0.2135
0.161
0.369
0.267
0.1045
0.0695
0.278
0.176
0.0845
0.1395
0.0
0.0175
0.092
0.07
0.0
0.0055
0.0
0.0
0.0
0.0
0.0
0.0
0.0
0.0
0.114
0.0
0.0
0.0
0.0735
0.23900000000000002
0.3535
0.3695
0.11
0.08750000000000001
0.006500000000000001
0.0805
0.20450000000000002
0.3055
0.372
0.296
0.488
0.494
0.6835
0.6865
0.89
0.6875
0.8545
0.7225
0.8195
0.7555000000000001
0.7345
0.67
0.7415
0.656
0.6785
0.6665
0.685
0.868
0.756
0.7995
0.6745
0.8285
0.708
0.8345
0.669
0.7735
0.7805
0.867
0.7225
0.6935
0.793
0.8075
0.8585
0.7925
0.8535
0.7915
0.8875000000000001
0.713
0.8365
0.6515
0.7365
0.715
0.685
0.791
0.6995
0.6515
0.658
0.6955
0.7745
0.5750000000000001
0.3075
0.056
0.0
0.0025
0.262
0.49
0.9635
1.4155
1.551
1.2415
1.159
1.286
1.191
1.0955
0.9275
1.0315
0.8375
0.7545000000000001
0.7355
0.8385
0.7765
0.5710000000000001
0.46
0.484
0.219
0.23850000000000002
0.24
0.29
0.13
0.016
0.079
0.061
0.0915
0.2485
0.0
0.0945
0.0
0.0005
0.0125
0.07200000000000001
0.0395
0.0175
0.0
0.042
0.057
0.0145
0.0035
0.1495
0.054
0.0
0.0
0.0645
0.0905
0.0115
0.0
0.0
0.0
0.0
0.0
0.2145
0.268
0.28150000000000003
0.073
0.0
0.0835
0.1825
0.13
0.3865
0.394
0.4015
0.4995
0.6950000000000001
0.73
0.6845
0.7355
0.7135
0.6970000000000001
0.8375
0.6455
0.7485
0.7755
0.7805
0.6585
0.7035
0.8250000000000001
0.787
0.6595
0.7295
0.754
0.6565
0.742
0.8475
0.86
0.8245
0.9515
0.8635
0.7845
0.8065
0.905
0.6915
0.8280000000000001
0.552
0.0565
0.0
0.3935
1.4375
1.0325
0.9425
0.9265
0.753
0.228
0.4185
0.2595
0.1845
0.312
0.196
0.388
0.28700000000000003
0.2925
0.1975
0.1015
0.038
0.0
0.11900000000000001
0.0
0.0
0.0
0.058
0.033
0.0
0.0
0.1
0.1485
0.0535
0.0
0.0
0.0
0.029500000000000002
0.0755
0.09
0.0
0.0565
0.0
0.0
0.0
0.0
0.0
0.0
0.076
0.2665
0.3435
0.2975
0.069
0.009000000000000001
0.0725
0.2335
0.1945
0.1115
0.3645
0.40800000000000003
0.2425
0.47000000000000003
0.6705
0.7845
0.73
0.602
0.7165
0.6715
0.644
0.765
0.5275
0.8655
0.8785000000000001
0.7375
0.708
0.5725
0.7675000000000001
0.7355
0.7275
0.8525
0.779
0.844
0.649
0.8130000000000001
0.8905000000000001
0.8085
0.8845000000000001
0.729
0.735
0.7845
0.8395
0.7245
0.8105
0.713
0.778
0.374
0.0
0.0
0.2285
0.8035
1.274
1.4965
1.4435
1.159
1.314
0.834
1.07
0.8715
0.653
0.5165
0.4335
0.279
0.3295
0.23650000000000002
0.2425
0.2145
0.275
0.137
0.0
0.079
0.0425
0.1285
0.2275
0.083
0.15
0.0685
0.0
0.01
0.0
0.0
0.0755
0.0
0.0
0.094
0.042
0.0
0.0
0.0
0.0
0.0
0.0
0.0
0.0
0.0
0.0
0.0
0.249
0.359
0.3165
0.3595
0.0
0.022
0.258
0.5175
0.28
0.251
0.4295
0.6855
0.8405
0.6325000000000001
0.854
0.7555000000000001
0.5625
0.734
0.8285
0.9405
0.9450000000000001
0.894
0.927
0.7635000000000001
0.89
0.8270000000000001
0.9550000000000001
0.9955
0.785
1.1185
0.861
0.9205
0.7485
0.9565
0.8865000000000001
0.8955000000000001
1.0075
0.713
0.8595
0.8305
0.502
0.3005
0.2295
0.0935
0.2605
0.41550000000000004
0.9935
1.211
1.3955
1.443
1.4355
1.3945
1.309
1.2215
0.8985
0.8565
0.911
0.7225
0.6265000000000001
0.7705
0.7165
0.6115
0.609
0.5175
0.3905
0.41550000000000004
0.487
0.331
0.3865
0.3675
0.366
0.389
0.131
0.223
0.1385
0.234
0.05
0.1675
0.1405
0.1395
0.043000000000000003
0.202
0.0
0.019
0.128
0.1045
0.0
0.0
0.073
0.0
0.024
0.0
0.0
0.122
0.0
0.001
0.0535
0.06
0.0
0.0
0.0
0.0
0.0
0.0
0.2315
0.23850000000000002
0.35000000000000003
0.4275
0.2445
0.0
0.271
0.2275
0.2945
0.278
0.4965
0.3545
0.554
0.8435
0.6675
0.7275
0.7165
0.6855
0.638
0.8275
0.7905
0.633
0.8145
0.708
0.771
0.598
0.6985
0.6375000000000001
0.786
0.6435
0.8915000000000001
0.7705
0.8085
0.6365000000000001
0.771
0.7435
0.8715
0.6815
0.63
0.7735
0.7985
0.787
0.7295
0.7975
0.7165
0.7265
0.5915
0.7355
0.7155
0.766
0.582
0.7295
0.6715
0.7235
0.6275000000000001
0.8495
0.7020000000000001
0.7685
0.682
0.301
0.0605
0.0
0.0
0.17300000000000001
0.7325
1.0115
1.2295
1.3815
1.4305
1.2665
1.161
1.2075
1.0815000000000001
0.903
0.9420000000000001
0.9380000000000001
0.7645000000000001
0.6675
0.5785
0.4955
0.447
0.321
0.3655
0.40850000000000003
0.17550000000000002
0.3055
0.2755
0.0205
0.2895
0.1615
0.2705
0.166
0.182
0.076
0.0045000000000000005
0.146
0.08600000000000001
0.095
0.006500000000000001
0.0
0.0
0.1085
0.083
0.0
0.0
0.0
0.084
0.0
0.0
0.0
0.0
0.0
0.0
0.09
0.0
0.0
0.0
0.0195
0.429
0.41400000000000003
0.365
0.1815
0.0
0.117
0.254
0.1395
0.17400000000000002
0.28750000000000003
0.37
0.2975
0.6945
0.7715
0.5355
0.5505
0.605
0.6525
0.7115
0.7395
0.7675000000000001
0.5645
0.6910000000000001
0.6985
0.8815000000000001
0.6205
0.7335
0.6950000000000001
0.6855
0.771
0.7385
0.898
0.7465
0.6635
0.791
0.7405
0.775
0.759
0.834
0.7875
0.8025
0.8455
0.795
0.6935
0.6735
0.36
0.28650000000000003
0.046
0.0
0.6585
1.1065
1.4395
1.1835
1.0905
1.2635
0.9605
0.9975
0.8765000000000001
0.6975
0.9045
0.6005
0.1975
0.3185
0.368
0.203
0.2615
0.20350000000000001
0.23850000000000002
0.1835
0.11900000000000001
0.1875
0.0885
0.0575
0.0475
0.079
0.0575
0.076
0.0585
0.0
0.0165
0.0
0.0
0.036000000000000004
0.0045000000000000005
0.0
0.0
0.14400000000000002
0.0175
0.051000000000000004
0.0
0.0
0.0
0.0
0.0
0.0
0.0
0.0185
0.0
0.0
0.0
0.045
0.035500000000000004
0.03
0.0
0.0
0.0
0.076
0.1355
0.23950000000000002
0.166
0.17400000000000002
0.09
0.20350000000000001
0.28250000000000003
0.176
0.279
0.265
0.422
0.247
0.47650000000000003
0.317
0.464
0.35050000000000003
0.6475
0.4585
0.5995
0.7045
0.7785
0.6435
0.6785
0.6125
0.729
0.6845
0.8095
0.7815
0.8325
0.7775
0.7915
0.8045
0.7795
0.7875
0.6305000000000001
0.6905
0.8075
0.6475
0.7085
0.8485
0.7025
0.809
0.7305
0.838
0.8315
0.9215
0.876
0.8215
0.8725
1.0030000000000001
0.75
0.903
0.937
0.9685
0.7965
0.7255
0.429
0.0
0.0
0.09
0.2775
0.6955
1.1655
1.4815
1.431
1.3245
1.1625
1.1395
1.0050000000000001
0.7675000000000001
0.8205
0.365
0.243
0.4845
0.227
0.3225
0.261
0.28350000000000003
0.114
0.3095
0.242
0.218
0.11800000000000001
0.1775
0.0285
0.1075
0.0
0.0
0.0
0.0
0.0225
0.07100000000000001
0.081
0.034
0.13
0.067
0.0905
0.0645
0.197
0.0
0.0
0.0
0.0
0.0
0.0
0.0
0.0
0.009000000000000001
0.0
0.0
0.0775
0.1305
0.35000000000000003
0.4255
0.376
0.271
0.128
0.101
0.0465
0.0565
0.0
0.0605
0.11800000000000001
0.0535
0.20750000000000002
0.3825
0.358
0.795
0.6175
0.667
0.766
0.5835
0.6485
0.6165
0.5915
0.6990000000000001
0.6465
0.862
0.7985
0.5955
0.7245
0.673
0.721
0.7615000000000001
0.6835
0.8545
0.6970000000000001
0.8415
0.6255000000000001
0.7595000000000001
0.8415
0.8025
0.9225
0.785
0.7045
0.8515
0.7405
0.7585000000000001
0.9235
0.729
0.5285
0.1645
0.0
0.107
0.196
1.0135
1.499
1.2805
1.2615
1.2335
1.2215
1.014
1.1915
0.6095
0.8300000000000001
0.627
0.3275
0.4045
0.455
0.3145
0.182
0.3235
0.1115
0.127
0.2
0.0115
0.111
0.168
0.2525
0.0625
0.1635
0.193
0.17
0.034
0.0
0.0
0.0
0.0
0.027
0.006
0.0
0.0
0.0
0.0
0.0
0.0675
0.034
0.0
0.0
0.0
0.0
0.0
0.1495
0.28350000000000003
0.3595
0.356
0.038
0.14250000000000002
0.185
0.1275
0.643
0.5175
1.0255
0.734
0.7515000000000001
0.7455
0.876
0.7685
0.8200000000000001
0.8715
0.8310000000000001
0.7375
0.927
0.846
0.8015
0.9525
0.8665
0.8775000000000001
0.9015
0.9335
0.8615
0.9480000000000001
1.07
0.8945000000000001
0.8915000000000001
0.8805000000000001
0.9575
1.0065
1.0150000000000001
0.8210000000000001
0.8725
0.8935000000000001
0.5195
0.2635
0.0675
0.1765
0.6605
1.183
1.5075
1.401
1.0825
1.341
1.2165
0.9695
0.8485
0.843
0.7635000000000001
0.7375
0.5425
0.2795
0.3115
0.3685
0.3345
0.34700000000000003
0.257
0.387
0.2905
0.099
0.253
0.1225
0.1235
0.048
0.043000000000000003
0.08750000000000001
0.059500000000000004
0.043000000000000003
0.0685
0.0
0.0
0.0
0.0135
0.14
0.0
0.0
0.0
0.0395
0.0175
0.0
0.0
0.0
0.0
0.0
0.0
0.0
0.006500000000000001
0.423
0.332
0.358
0.17300000000000001
0.1845
0.47000000000000003
0.317
0.3115
0.371
0.2575
0.492
0.8605
0.6165
0.7515000000000001
0.642
0.767
0.8310000000000001
0.7215
0.5595
0.5595
0.7795
0.764
0.7365
0.9505
0.762
0.8220000000000001
0.718
0.7515000000000001
0.8185
0.802
0.771
0.8125
0.6715
0.863
0.974
0.8245
0.8405
0.7285
0.8375
0.8565
0.931
0.8795000000000001
0.868
0.7685
0.426
0.157
0.0615
0.1695
0.601
1.4825
1.4025
1.381
1.1145
1.226
0.961
0.9265
1.0010000000000001
0.9605
0.7555000000000001
0.5475
0.3935
0.367
0.2945
0.4435
0.317
0.3855
0.126
0.2795
0.251
0.178
0.166
0.11950000000000001
0.069
0.0
0.0
0.0
0.0655
0.0
0.0645
0.0
0.0
0.0
0.0055
0.0415
0.019
0.0
0.0
0.0
0.0
0.4325
0.4225
0.05
0.0055
0.2195
0.2805
0.0
0.3015
0.07
0.41600000000000004
0.3395
0.5145
0.64
0.637
0.713
0.5605
0.7115
0.6535
0.659
0.8465
0.647
0.658
0.7925
0.662
0.6385000000000001
0.6295000000000001
0.8585
0.6155
0.7945
0.7795
0.6755
0.8085
0.6990000000000001
0.839
0.8075
0.8715
0.8375
0.903
0.834
0.7775
0.7235
0.8395
0.9005
0.8515
0.4215
0.029500000000000002
0.0
0.258
0.5700000000000001
1.305
1.3995
1.281
1.3795
0.9865
0.9835
1.1775
0.7495
0.9575
0.5405
0.597
0.2085
0.1875
0.187
0.2175
0.2585
0.2195
0.25
0.0
0.0905
0.0365
0.1905
0.0
0.0
0.0115
0.0
0.0
0.0
0.0
0.0
0.0
0.0
0.0
0.0
0.0
0.0
0.091
0.0
0.015
0.0
0.0
0.0
0.058
0.0
0.0
0.0
0.0
0.116
0.3555
0.3835
0.0615
0.154
0.13
0.17550000000000002
0.3215
0.3825
0.2255
0.296
0.3845
0.4655
0.7975
0.5305
0.783
0.676
0.7495
0.7685
0.6395000000000001
0.7305
0.6635
0.8825000000000001
0.6960000000000001
0.784
0.801
0.6950000000000001
0.6595
0.807
0.937
0.726
0.6355000000000001
0.6925
0.8985
1.1005
0.8215
0.8515
0.7655000000000001
0.801
0.8805000000000001
0.8225
0.8965
0.847
0.8415
0.7745
0.9745
0.493
0.0785
0.065
1.4435
1.332
1.0225
1.0505
1.0355
0.7535000000000001
0.7555000000000001
0.42
0.447
0.3075
0.28150000000000003
0.3365
0.332
0.27
0.247
0.098
0.2695
0.1675
0.20550000000000002
0.0975
0.1685
0.004
0.0
0.083
0.0565
0.07
0.1265
0.0
0.0
0.049
0.0
0.0
0.0
0.0895
0.0
0.0555
0.0205
0.014
0.0
0.0
0.0
0.0
0.0
0.1605
0.339
0.2235
0.34650000000000003
0.1585
0.0575
0.079
0.185
0.27
0.1405
0.0165
0.263
0.3975
0.458
0.22
0.4395
0.5115000000000001
0.56
0.5985
0.903
0.709
0.8185
0.6
0.6255000000000001
0.7295
0.735
0.7435
0.7405
0.7245
0.8145
0.7785
0.6745
0.681
0.704
0.7905
0.8165
0.8105
0.8155
0.798
0.7025
0.734
0.7915
0.9055
0.8725
0.873
0.7865
1.0015
0.8170000000000001
0.726
0.9035
0.7875
0.8775000000000001
0.7145
0.461
0.197
0.0
0.2755
0.7415
1.2775
1.7205000000000001
1.3255000000000001
1.3315000000000001
1.0205
1.0495
0.8135
0.9405
0.6715
0.551
0.437
0.34450000000000003
0.404
0.3225
0.3735
0.23600000000000002
0.3675
0.3615
0.1245
0.1645
0.0545
0.085
0.17400000000000002
0.08650000000000001
0.1315
0.1295
0.109
0.049
0.0
0.0785
0.0
0.0
0.0615
0.0
0.035
0.0
0.0
0.0
0.0
0.0
0.0
0.0
0.0
0.0
0.0
0.1775
0.391
0.14400000000000002
0.1135
0.14350000000000002
0.2725
0.116
0.2405
0.3795
0.487
0.466
0.631
0.7595000000000001
0.8995
0.848
0.843
0.8215
0.8105
0.867
0.7015
0.7825
0.7395
0.7275
0.9725
0.8835000000000001
0.7515000000000001
0.74
0.759
0.6835
0.9035
0.712
0.9675
0.8995
0.8245
1.0355
0.9505
0.8195
0.7485
0.8140000000000001
0.9045
0.8745
0.705
0.793
0.9560000000000001
0.8130000000000001
0.7995
0.5165
0.247
0.196
0.0305
0.1165
0.20650000000000002
0.7845
1.0845
1.3845
1.2935
1.3225
1.3935
1.2445
1.0285
0.9835
0.9415
0.7435
0.6795
0.613
0.7265
0.6455
0.5365
0.3875
0.333
0.259
0.2295
0.0395
0.234
0.23800000000000002
0.1275
0.1235
0.1835
0.1205
0.0975
0.094
0.09
0.23750000000000002
0.082
0.0
0.065
0.1205
0.043500000000000004
0.095
0.0
0.0035
0.0
0.006
0.11
0.037
0.0
0.0
0.0
0.0
0.0505
0.0
0.0
0.0
0.0
0.164
0.0105
0.025
0.14250000000000002
0.0405
0.0
0.077
0.076
0.1095
0.1285
0.0
0.0
0.0
0.03
0.0
0.0
0.0
0.0
0.0935
0.153
0.3595
0.359
0.2315
0.334
0.18
0.1095
0.1535
0.3685
0.23600000000000002
0.17550000000000002
0.3405
0.219
0.21
0.339
0.392
0.247
0.21
0.4915
0.6355000000000001
0.7255
0.6545
0.649
0.7635000000000001
0.7075
0.5075000000000001
0.7815
0.62
0.5435
0.6545
0.5805
0.765
0.677
0.6595
0.6075
0.7145
0.6055
0.875
0.7020000000000001
0.6095
0.7185
0.7545000000000001
0.7465
0.8220000000000001
0.6635
0.8795000000000001
0.7045
0.7475
0.7765
0.8335
0.6975
0.7505000000000001
0.6355000000000001
0.7515000000000001
0.6895
0.8045
0.8545
0.8170000000000001
0.74
0.6735
0.6525
0.627
0.519
0.799
0.7135
0.7405
0.597
0.359
0.0955
0.066
0.2495
0.6175
1.307
1.334
1.2935
1.1045
1.091
0.904
0.7815
0.863
0.7955
0.4885
0.37
0.2535
0.2465
0.181
0.1455
0.164
0.1935
0.2115
0.2795
0.1665
0.0185
0.0825
0.213
0.0
0.014
0.128
0.0
0.0
0.074
0.0
0.0
0.0
0.0
0.0
0.0
0.0
0.052000000000000005
0.0225
0.0
0.0
0.2015
0.23650000000000002
0.1865
0.0405
0.0
0.34500000000000003
0.398
0.23800000000000002
0.2905
0.435
0.32
0.3685
0.747
0.5465
0.6785
0.793
0.7020000000000001
0.6735
0.5975
0.6585
0.8635
0.6175
0.7135
0.8115
0.725
0.8015
0.612
0.8485
0.9415
0.835
0.6435
0.792
0.8715
0.725
0.929
0.8565
0.8095
0.8855000000000001
0.8725
0.855
0.735
0.911
0.842
0.7045
0.5775
0.113
0.08700000000000001
0.0485
0.3555
0.9175
1.3095
1.3255000000000001
1.495
1.1305
1.0375
1.0865
0.8695
0.9915
0.5445
0.561
0.468
0.1785
0.2495
0.269
0.1775
0.2305
0.2995
0.1915
0.056
0.1545
0.1135
0.056
0.059000000000000004
0.0
0.0
0.0
0.0
0.0
0.025500000000000002
0.0
0.0
0.08650000000000001
0.0375
0.0
0.0
0.0525
0.0
0.0095
0.0
0.0
0.07
0.0105
0.0
0.0
0.0
0.0
0.012
0.3855
0.07100000000000001
0.2615
0.307
0.2565
0.328
0.2235
0.116
0.2585
0.46900000000000003
0.2955
0.5245
0.6735
0.905
0.6765
0.8485
0.889
0.751
0.7255
0.7625000000000001
0.857
0.748
0.9165
0.918
0.8555
0.8375
0.7705
0.8955000000000001
0.8635
0.8475
0.893
0.9115
0.8230000000000001
0.975
0.8415
0.913
0.876
0.798
0.7735
0.8205
0.789
0.8595
0.8725
0.6920000000000001
0.4225
0.185
0.439
1.2525
1.2605
1.1115
0.996
1.006
1.0375
0.9015
0.5765
0.628
0.5455
0.501
0.3945
0.3095
0.2445
0.3365
0.336
0.183
0.134
0.2255
0.23850000000000002
0.1695
0.0045000000000000005
0.1305
0.10400000000000001
0.184
0.059500000000000004
0.1375
0.0365
0.059000000000000004
0.03
0.0
0.0275
0.11
0.0
0.0
0.0
0.0
0.0055
0.029500000000000002
0.0
0.0
0.0
0.0
0.0
0.0
0.2645
0.2465
0.34750000000000003
0.3615
0.269
0.203
0.1365
0.4265
0.3055
0.3845
0.5175
0.665
0.5335
0.5915
0.7745
0.874
0.8250000000000001
0.6265000000000001
0.7635000000000001
0.6955
0.806
0.8025
0.6345000000000001
0.6805
0.6375000000000001
0.8715
0.6905
0.722
0.719
0.8805000000000001
0.636
0.8275
0.7535000000000001
0.8685
0.6725
0.6535
0.6505
0.766
0.7965
0.722
0.666
0.766
0.6755
0.7495
0.778
0.7635000000000001
0.7985
0.721
0.787
0.6890000000000001
0.901
0.6845
0.7525000000000001
0.7405
0.732
0.623
0.7615000000000001
0.6685
0.6615
0.3765
0.333
0.1685
0.0525
0.0
0.305
0.6715
0.8935000000000001
1.4215
1.5825
1.3135000000000001
1.315
1.335
1.2855
1.2015
0.9835
0.933
1.0255
0.977
0.753
0.6255000000000001
0.6025
0.6085
0.3635
0.47150000000000003
0.3525
0.296
0.2995
0.23950000000000002
0.171
0.2475
0.2765
0.13
0.0725
0.225
0.1605
0.053
0.0775
0.042
0.067
0.1105
0.051000000000000004
0.132
0.0
0.004
0.17300000000000001
0.0445
0.0
0.14100000000000001
0.0
0.0
0.0
0.0
0.0
0.10350000000000001
0.0
0.0
0.0
0.0
0.0
0.0
0.0
0.0
0.0585
0.01
0.0
0.015
0.0
0.0
0.0
0.0
0.085
0.0
0.0
0.0
0.0
0.305
0.1465
0.34450000000000003
0.304
0.2925
0.0
0.0555
0.091
0.1795
0.084
0.4985
0.292
0.3715
0.589
0.79
0.86
0.875
0.7125
0.803
0.8265
0.8445
0.9520000000000001
0.8205
0.781
1.041
0.8125
0.81
0.9905
0.8195
0.9735
0.8240000000000001
1.0515
0.8665
0.9415
0.9400000000000001
0.8625
0.9225
0.935
0.857
0.8945000000000001
0.9415
0.8825000000000001
0.857
0.7355
0.7475
0.681
0.5545
0.3435
0.199
0.0585
0.3035
0.5730000000000001
1.0565
1.3805
1.371
1.4195
1.2935
1.2645
1.323
1.3035
1.1215
0.8625
0.9495
1.0555
0.962
0.6905
0.647
0.447
0.5690000000000001
0.41300000000000003
0.248
0.3415
0.299
0.3675
0.5055000000000001
0.2915
0.3355
0.293
0.2965
0.1805
0.3075
0.0585
0.2155
0.2005
0.1575
0.0535
0.0
0.097
0.0
0.0
0.0285
0.0
0.067
0.121
0.0
0.0
0.0
0.0445
0.0175
0.062
0.08700000000000001
0.0
0.0195
0.0
0.0
0.0055
0.0
0.0
0.0
0.0
0.1405
0.0
0.0
0.0035
0.0
0.0
0.0765
0.0
0.0
0.0
0.0
0.0
0.0
0.23600000000000002
0.23950000000000002
0.307
0.2165
0.23450000000000001
0.2305
0.043500000000000004
0.14400000000000002
0.146
0.1255
0.274
0.1925
0.3305
0.40650000000000003
0.3385
0.29
0.485
0.4555
0.587
0.8575
0.7645000000000001
0.9235
0.8005
0.798
0.7625000000000001
0.896
0.8195
0.6910000000000001
0.6635
0.8200000000000001
0.7805
0.8055
0.7255
0.7435
0.8825000000000001
0.71
0.7295
0.7195
0.8305
0.6665
0.654
0.6675
0.7305
0.719
0.5915
0.6545
0.7255
0.704
0.7595000000000001
0.8785000000000001
0.6875
0.9195
0.8190000000000001
0.7635000000000001
0.7775
0.843
0.7155
0.8045
0.894
0.7010000000000001
0.8105
0.8275
0.6890000000000001
0.633
0.8295
0.5745
0.6305000000000001
0.4415
0.3375
0.1695
0.0
0.0
0.247
0.6965
0.971
1.3795
1.5210000000000001
1.4525000000000001
1.3195000000000001
1.163
0.9835
1.1735
0.8595
0.8555
0.595
0.754
0.47850000000000004
0.355
0.364
0.325
0.219
0.391
0.1895
0.159
0.17
0.0
0.0205
0.023
0.0
0.0
0.0
0.0
0.0
0.0275
0.013000000000000001
0.0
0.0
0.0
0.0
0.0
0.0
0.0
0.0
0.1955
0.307
0.41400000000000003
0.1565
0.0745
0.192
0.045
0.2015
0.149
0.1555
0.0225
0.154
0.084
0.28150000000000003
0.46950000000000003
0.3635
0.6555
0.648
0.7155
0.6195
0.6215
0.6055
0.677
0.5680000000000001
0.71
0.621
0.6900000000000001
0.6155
0.7805
0.6065
0.5095000000000001
0.8065
0.7675000000000001
0.6995
0.6625
0.801
0.804
0.751
0.7685
0.8445
0.8225
0.8735
0.8865000000000001
0.7545000000000001
0.8455
0.837
0.8035
0.6885
0.7505000000000001
0.3425
0.299
0.0
0.2675
0.7695
1.0775000000000001
1.5835000000000001
1.167
0.9945
1.3395000000000001
0.9675
0.9905
0.6005
0.7435
0.742
0.6775
0.193
0.34950000000000003
0.333
0.275
0.3225
0.329
0.2445
0.2165
0.157
0.0
0.07050000000000001
0.0365
0.099
0.1845
0.049
0.028
0.1005
0.0
0.0
0.0
0.062
0.0
0.0
0.0
0.0
0.0
0.051500000000000004
0.022
0.0
0.0
0.0
0.077
0.049
0.0
0.0
0.0
0.083
0.3015
0.364
0.23
0.1165
0.34550000000000003
0.0
0.0
0.3675
0.3235
0.307
0.3675
0.496
0.717
0.8915000000000001
0.9635
0.8905000000000001
0.8475
0.6535
0.7605000000000001
0.8635
0.773
0.935
0.811
0.9550000000000001
0.9615
0.834
0.8405
0.8215
0.9995
0.9275
0.915
0.8435
0.8230000000000001
0.9605
1.0785
0.9535
0.9415
0.867
0.8825000000000001
0.8300000000000001
0.805
0.7715
0.8725
0.8325
0.936
0.746
0.3795
0.20750000000000002
0.20600000000000002
0.0
0.4445
1.0235
1.285
1.3795
1.3015
1.0075
0.6335000000000001
0.6635
0.2675
0.39
0.3875
0.2165
0.225
0.0665
0.23950000000000002
0.2415
0.2015
0.1285
0.23750000000000002
0.0505
0.1815
0.0155
0.0995
0.0175
0.1235
0.0
0.0035
0.062
0.0
0.0535
0.0
0.0
0.0
0.0
0.0
0.029500000000000002
0.0
0.0
0.11850000000000001
0.0
0.11850000000000001
0.0
0.0
0.0
0.0055
0.0
0.0
0.0
0.07
0.0
0.0
0.0
0.4405
0.3355
0.224
0.07050000000000001
0.0285
0.214
0.052000000000000005
0.254
0.396
0.3015
0.328
0.4635
0.6805
0.734
0.8180000000000001
0.7355
0.811
0.8455
0.7615000000000001
0.7195
0.8795000000000001
0.796
0.885
0.882
0.9185
0.8915000000000001
0.7395
0.9805
0.9295
0.8235
0.777
0.7325
0.8495
0.8975
0.8015
0.9895
0.8935000000000001
0.738
0.9595
0.8705
1.0095
0.9195
0.8735
0.935
0.9075
0.714
0.401
0.077
0.0
0.2655
0.8405
1.4875
1.374
1.2075
1.2565
0.8355
1.1215
0.8795000000000001
0.7885
0.9635
0.6565
0.355
0.451
0.4285
0.34450000000000003
0.28350000000000003
0.152
0.2455
0.164
0.1895
0.1095
0.1645
0.057
0.1615
0.112
0.095
0.11900000000000001
0.0
0.02
0.092
0.0
0.0
0.0325
0.131
0.0105
0.0
0.0
0.0
0.0
0.0
0.0
0.0
0.0
0.0
0.022
0.0
0.094
0.1715
0.375
0.3775
0.3765
0.0
0.1505
0.3425
0.4305
0.28800000000000003
0.2715
0.35150000000000003
0.7665000000000001
0.7115
0.7775
1.0010000000000001
0.866
0.883
0.8495
0.8755000000000001
0.7515000000000001
0.884
0.761
0.885
0.676
0.8675
1.03
0.8155
0.8025
1.053
0.9225
1.1045
0.812
0.9085
0.9185
1.025
0.897
0.8320000000000001
0.6165
0.41600000000000004
0.195
0.117
0.4245
1.0925
1.3765
1.4755
1.383
1.1115
0.9675
1.1895
0.982
0.7565000000000001
0.8045
0.6665
0.41550000000000004
0.4295
0.3565
0.5315
0.2895
0.2775
0.3185
0.1895
0.2415
0.232
0.20500000000000002
0.2015
0.22
0.0475
0.0785
0.092
0.1125
0.038
0.069
0.044
0.0
0.0
0.057
0.061
0.044
0.0
0.047
0.0765
0.049
0.004
0.024
0.0
0.0
0.0
0.0
0.0
0.41350000000000003
0.2705
0.266
0.223
0.1875
0.2005
0.3385
0.182
0.40650000000000003
0.395
0.301
0.4865
0.559
0.8405
0.7255
0.7975
0.614
0.8545
0.8235
0.7385
0.6635
0.7905
0.597
0.85
0.9490000000000001
0.7055
0.5720000000000001
0.6705
0.8545
0.8250000000000001
0.8435
0.8290000000000001
0.7125
0.8675
0.841
0.9500000000000001
0.8315
1.0045
1.0835000000000001
0.7225
0.7875
0.8835000000000001
0.9510000000000001
0.8215
0.8495
0.782
0.5115000000000001
0.199
0.0
0.098
0.9725
1.5685
1.3765
1.2355
1.1555
0.9580000000000001
1.0985
0.8275
0.921
0.759
0.5740000000000001
0.3865
0.3535
0.3425
0.3185
0.291
0.2985
0.298
0.3685
0.084
0.1795
0.2215
0.0835
0.17250000000000001
0.1895
0.08
0.019
0.0765
0.067
0.14
0.1165
0.0175
0.0
0.027
0.0985
0.0
0.185
0.0
0.0
0.084
0.352
0.5325
0.2695
0.0
0.076
0.34450000000000003
0.1835
0.1995
0.3025
0.5355
0.4315
0.725
0.6825
0.797
0.6945
0.6485
0.7555000000000001
0.7465
0.7405
0.834
0.6455
0.5835
0.8645
0.763
0.8150000000000001
0.6465
0.6545
0.8875000000000001
0.727
0.749
0.838
0.78
1.0275
0.7645000000000001
0.8855000000000001
0.845
0.8195
0.9410000000000001
0.9565
0.752
0.8695
0.6965
0.7005
0.845
0.6705
0.2475
0.0755
0.001
0.301
1.0155
1.5455
1.3295000000000001
1.377
1.1245
1.2295
0.8665
0.6625
0.6565
0.6945
0.3245
0.386
0.255
0.2335
0.244
0.1125
0.17500000000000002
0.249
0.2455
0.24
0.2095
0.006500000000000001
0.2105
0.179
0.0985
0.15
0.1775
0.158
0.0
0.04
0.0
0.031
0.131
0.0015
0.0655
0.0
0.0
0.0
0.0
0.0
0.044
0.0
0.0
0.0095
0.0
0.0
0.0
0.0
0.0
0.0
0.10350000000000001
0.03
0.0
0.06
0.0175
0.0
0.0
0.0475
0.029500000000000002
0.0
0.0
0.0
0.0
0.0905
0.18
0.3305
0.35100000000000003
0.07
0.1765
0.1855
0.0195
0.1825
0.1835
0.1615
0.18
0.35150000000000003
0.2105
0.373
0.255
0.4965
0.518
0.446
0.6705
0.835
0.8255
0.7595000000000001
0.8585
0.5295
0.6735
0.615
0.6955
0.7585000000000001
0.5515
0.625
0.772
0.6745
0.685
0.6495
0.7155
0.5805
0.601
0.6235
0.706
0.7275
0.8355
0.629
0.6805
0.7385
0.7925
0.746
0.7425
0.716
0.7795
0.779
0.749
0.8245
0.7925
0.71
0.7665000000000001
0.6915
0.7195
0.332
0.1595
1.067
1.2675
1.1615
1.012
0.8475
0.669
0.763
0.529
0.4535
0.3135
0.316
0.3825
0.17300000000000001
0.10200000000000001
0.0635
0.312
0.097
0.3685
0.138
0.1675
0.09
0.185
0.18
0.0755
0.0815
0.0115
0.1395
0.0
0.0
0.1395
0.006500000000000001
0.0455
0.025
0.0
0.0
0.055
0.11950000000000001
0.1385
0.0
0.0185
0.057
0.0
0.0625
0.003
0.0
0.0
0.0645
0.0
0.0035
0.0
0.0
0.0
0.0
0.0
0.0
0.0
0.0
0.18
0.31
0.40850000000000003
0.3285
0.2575
0.294
0.246
0.1485
0.1785
0.301
0.27
0.2945
0.2695
0.184
0.2235
0.4025
0.3895
0.3855
0.436
0.5155
0.5195
0.6785
0.649
0.8125
0.7005
0.7415
0.617
0.8145
0.6555
0.7775
0.6755
0.7415
0.8375
0.717
0.669
0.6305000000000001
0.7645000000000001
0.6195
0.6375000000000001
0.8375
0.6455
0.5355
0.6715
0.625
0.6655
0.6855
0.6835
0.6990000000000001
0.7525000000000001
0.7515000000000001
0.7915
0.8305
0.6815
0.681
0.781
0.9380000000000001
0.8245
0.7865
0.6995
0.834
0.665
0.6625
0.6255000000000001
0.6575
0.399
0.3525
0.155
0.0
0.0
0.2115
0.3395
1.043
1.2975
1.2555
1.2955
1.3095
1.2570000000000001
1.198
1.2105000000000001
1.0525
0.9995
0.8325
0.9405
0.779
0.6775
0.659
0.8045
0.555
0.3025
0.1855
0.3095
0.131
0.225
0.074
0.23800000000000002
0.1625
0.167
0.1
0.23600000000000002
0.0615
0.02
0.0
0.0
0.0
0.0815
0.1885
0.0
0.0275
0.0
0.11
0.10250000000000001
0.0135
0.0
0.11800000000000001
0.0
0.0
0.029500000000000002
0.0
0.0
0.0
0.0845
0.076
0.0345
0.0
0.0
0.0
0.0
0.0
0.0
0.0
0.0
0.163
0.0
0.0
0.0
0.0
0.0
0.0
0.0
0.0
0.0905
0.454
0.3585
0.445
0.2915
0.1705
0.11750000000000001
0.137
0.1775
0.1785
0.2715
0.5905
0.41100000000000003
0.1875
0.329
0.2435
0.465
0.5545
0.607
0.798
0.7155
0.762
0.5875
0.751
0.6705
0.6755
0.7645000000000001
0.8485
0.7385
0.7615000000000001
0.7075
0.7835
0.746
0.72
0.732
0.623
0.769
0.6
0.7605000000000001
0.8645
0.7515000000000001
0.7355
0.7775
0.7975
0.6970000000000001
0.673
0.8485
0.8575
0.7885
0.8435
0.671
0.898
0.8265
0.9655
0.8915000000000001
0.7875
0.8825000000000001
0.604
0.217
0.009000000000000001
0.1565
0.41550000000000004
1.0955
1.2625
1.5555
1.4755
1.2435
1.2445
1.241
1.2555
1.1185
0.807
0.8865000000000001
0.911
0.6145
0.4585
0.1375
0.1495
0.228
0.159
0.15
0.0685
0.063
0.004
0.1015
0.0
0.001
0.069
0.11
0.113
0.0
0.0
0.0315
0.067
0.17550000000000002
0.03
0.0125
0.0
0.0
0.0
0.0
0.0
0.0
0.0485
0.0
0.0
0.0
0.0
0.0
0.0
0.0
0.0
0.004
0.0
0.029
0.2255
0.3395
0.3255
0.281
0.0
0.0
0.158
0.1245
0.222
0.101
0.2145
0.162
0.1605
0.315
0.1335
0.34900000000000003
0.311
0.4205
0.745
0.737
0.4805
0.8170000000000001
0.651
0.5760000000000001
0.6245
0.7685
0.641
0.6835
0.535
0.728
0.7835
0.559
0.677
0.586
0.6925
0.642
0.7035
0.5965
0.7295
0.629
0.66
0.5955
0.678
0.7335
0.5670000000000001
0.7185
0.6745
0.6455
0.7475
0.618
0.6385000000000001
0.6255000000000001
0.879
0.7375
0.7010000000000001
0.838
0.8885000000000001
0.8505
0.789
0.8115
0.789
0.6475
0.5615
0.895
0.6485
0.5935
0.304
0.23550000000000001
0.044
0.0
0.0
0.0
0.47350000000000003
0.767
1.3505
1.3585
1.2445
1.2135
1.379
1.1535
1.0210000000000001
0.78
0.801
0.8915000000000001
0.923
0.7355
0.623
0.686
0.5795
0.635
0.3915
0.4305
0.352
0.304
0.379
0.3435
0.4185
0.183
0.28500000000000003
0.14100000000000001
0.3295
0.0885
0.115
0.1155
0.11950000000000001
0.1
0.0
0.07200000000000001
0.0105
0.10300000000000001
0.0
0.0
0.114
0.17400000000000002
0.0
0.1245
0.0
0.0
0.0
0.0
0.0205
0.049
0.01
0.0
0.0
0.0005
0.0
0.0
0.0
0.0
0.0
0.0395
0.0
0.043000000000000003
0.0
0.0
0.042
0.187
0.0
0.0
0.0
0.0205
0.3715
0.4315
0.181
0.269
0.2015
0.0995
0.18
0.012
0.0015
0.396
0.28450000000000003
0.0895
0.3645
0.2225
0.4355
0.434
0.5635
0.5645
0.7635000000000001
0.6895
0.6825
0.5735
0.7065
0.7145
0.6945
0.7045
0.6585
0.769
0.6365000000000001
0.7005
0.6975
0.7845
0.763
0.766
0.7555000000000001
0.7615000000000001
0.7765
0.8235
0.8220000000000001
0.579
0.763
0.71
0.8155
0.676
0.87
0.9425
0.738
0.961
0.6665
0.8230000000000001
0.3955
0.0095
0.1205
0.556
1.0895
1.5190000000000001
1.4305
1.246
1.1115
0.9450000000000001
0.9675
0.9095
0.7645000000000001
0.6425
0.2745
0.234
0.3215
0.339
0.2705
0.132
0.164
0.0
0.062
0.0365
0.0
0.2555
0.1045
0.054
0.0
0.0
0.0
0.0605
0.0
0.0
0.0
0.0
0.0
0.0
0.017
0.0
0.0
0.0
0.0
0.0
0.0
0.0175
0.0
0.0
0.0
0.007
0.492
0.203
0.17350000000000002
0.0
0.28200000000000003
0.1295
0.355
0.3
0.1325
0.465
0.3115
0.4015
0.8455
0.5045000000000001
0.8665
0.5615
0.6930000000000001
0.5675
0.7455
0.6935
0.7485
0.847
0.79
0.6705
0.79
0.6405
0.8045
0.6715
0.8395
0.7145
0.7605000000000001
0.6795
0.797
0.8735
0.8955000000000001
0.8915000000000001
0.809
0.8555
0.6935
0.8405
0.8565
0.8775000000000001
0.9865
0.7055
0.8095
0.483
0.0
0.0
0.17550000000000002
0.603
1.3895
1.5415
1.3845
1.4055
1.2485
1.0345
1.1005
1.0575
0.8915000000000001
0.5035000000000001
0.5825
0.482
0.3925
0.3535
0.3855
0.3785
0.2795
0.3175
0.2335
0.3275
0.11800000000000001
0.178
0.132
0.06
0.117
0.0755
0.1285
0.0
0.109
0.0
0.0775
0.0
0.0625
0.07050000000000001
0.1595
0.0
0.023
0.084
0.089
0.0
0.0
0.0
0.0
0.125
0.0
0.0
0.0
0.0
0.0
0.20550000000000002
0.3825
0.2615
0.355
0.1655
0.329
0.25
0.5645
0.5795
0.811
0.7325
0.6825
0.6890000000000001
0.835
0.6970000000000001
0.6155
0.9195
0.602
0.9165
0.7015
0.679
0.729
0.841
0.732
0.6375000000000001
0.7835
0.733
0.719
0.8925000000000001
0.7235
0.75
0.7665000000000001
0.71
0.6955
0.761
0.725
0.778
0.751
0.8055
0.8915000000000001
0.8185
0.748
0.804
0.7975
0.7985
0.735
0.59
0.8675
0.5235
0.1695
0.11900000000000001
0.3035
0.8785000000000001
1.6115
1.4255
1.0965
1.2865
1.195
0.9335
0.913
0.9385
0.727
0.8245
0.46950000000000003
0.227
0.34450000000000003
0.3265
0.2615
0.266
0.2125
0.1235
0.1965
0.0
0.0
0.0
0.023
0.0
0.0
0.0
0.0
0.0
0.02
0.0
0.026000000000000002
0.078
0.0445
0.0
0.0
0.035500000000000004
0.0
0.0
0.0
0.01
0.0
0.0
0.0
0.0
0.0
0.008
0.0
0.2675
0.405
0.214
0.083
0.2695
0.1905
0.0655
0.35100000000000003
0.251
0.495
0.5625
0.5745
0.799
0.8845000000000001
0.7705
0.8335
0.8585
0.8525
0.8375
0.8345
0.9635
0.9390000000000001
0.8115
0.8165
0.7695
0.8255
0.9415
0.812
0.7985
0.9755
0.9865
0.9470000000000001
0.9275
0.8435
0.8275
0.8055
0.9385
0.9745
0.9335
0.7785
0.9535
0.8235
0.89
0.9470000000000001
0.755
0.7635000000000001
0.3655
0.226
0.088
0.2755
1.0015
1.5150000000000001
1.3545
1.2425
1.2145000000000001
1.031
0.993
0.9695
0.685
0.5355
0.445
0.5765
0.467
0.41000000000000003
0.262
0.20800000000000002
0.223
0.1855
0.265
0.168
0.17550000000000002
0.222
0.137
0.2505
0.0075
0.0845
0.0385
0.0
0.0405
0.0305
0.0
0.033
0.0
0.0
0.01
0.0
0.006500000000000001
0.0
0.0
0.0
0.0
0.0
0.0
0.0845
0.0
0.0
0.0
0.0
0.035500000000000004
0.197
0.5035000000000001
0.2925
0.2235
0.17250000000000001
0.0455
0.1445
0.3265
0.2975
0.618
0.8145
0.8275
0.656
0.6675
0.8395
0.8455
0.5845
0.8215
0.721
0.7415
0.723
0.8275
0.8315
0.8145
0.769
0.7975
0.7205
0.8475
0.7245
0.8025
0.839
0.6875
0.7085
0.7145
0.9580000000000001
0.8425
0.7685
0.811
0.914
0.7645000000000001
0.8975
0.7165
0.713
0.7555000000000001
0.8755000000000001
0.8015
0.9135
0.9365
0.8695
0.7295
0.9145
0.806
0.776
0.6675
0.7395
0.669
0.3285
0.1475
0.0
0.012
0.0
0.2985
0.6985
1.107
1.4445000000000001
1.4105
1.3795
1.2105000000000001
1.2690000000000001
1.0745
1.0555
0.7425
0.9415
0.8875000000000001
0.8275
0.6905
0.7225
0.5815
0.546
0.505
0.34450000000000003
0.397
0.3625
0.2765
0.1265
0.2965
0.296
0.342
0.298
0.164
0.28150000000000003
0.2275
0.1155
0.0735
0.17
0.2485
0.1155
0.0
0.0
0.035500000000000004
0.0
0.026000000000000002
0.0
0.073
0.0
0.0
0.017
0.0
0.0
0.0
0.07150000000000001
0.14400000000000002
0.0165
0.004
0.0
0.0575
0.0
0.083
0.03
0.0
0.0755
0.0
0.0
0.0
0.0
0.0
0.0
0.0
0.0
0.0
0.0
0.0
0.35050000000000003
0.329
0.3675
0.2235
0.101
0.074
0.068
0.121
0.093
0.1335
0.1695
0.256
0.23700000000000002
0.47900000000000004
0.466
0.671
0.5165
0.5945
0.6345000000000001
0.626
0.665
0.6675
0.7415
0.669
0.6755
0.6335000000000001
0.728
0.6315000000000001
0.807
0.8045
0.6945
0.5795
0.8105
0.799
0.7815
0.6295000000000001
0.7905
0.7075
0.6635
0.6875
0.8555
0.8195
0.757
0.6880000000000001
0.611
0.772
0.8065
0.774
0.7445
0.799
0.722
0.71
0.621
0.833
0.5595
0.811
0.8375
0.7195
0.726
0.746
0.7795
0.549
0.6305000000000001
0.8475
0.6115
0.372
0.0075
0.0
0.0
0.0
0.186
0.726
1.2445
1.2795
1.3625
1.0935
1.3975
1.164
1.082
1.2475
1.1195
0.7975
0.596
0.846
0.6235
0.6585
0.4655
0.2485
0.259
0.313
0.29
0.2565
0.2155
0.137
0.139
0.13
0.188
0.14100000000000001
0.158
0.0
0.127
0.101
0.06
0.0
0.0675
0.027
0.0
0.0
0.0
0.0
0.0
0.0
0.106
0.0
0.0195
0.019
0.0
0.106
0.0265
0.0
0.0535
0.0
0.021
0.354
0.41200000000000003
0.2475
0.3815
0.0
0.0
0.11850000000000001
0.4615
0.17250000000000001
0.152
0.361
0.162
0.5445
0.486
0.7255
0.553
0.6695
0.5315
0.625
0.55
0.5695
0.6865
0.673
0.6615
0.47400000000000003
0.6255000000000001
0.7525000000000001
0.6900000000000001
0.6295000000000001
0.7675000000000001
0.637
0.7775
0.7245
0.7595000000000001
0.8200000000000001
0.8075
0.7355
0.8105
0.7015
0.8285
0.7555000000000001
0.8555
0.8405
0.6395000000000001
0.7985
0.5355
0.2445
0.0
0.0
0.3245
0.8115
1.4015
1.3915
1.2735
1.1755
1.2025000000000001
0.908
0.866
0.9155
0.78
0.6965
0.6125
0.3625
0.3265
0.272
0.26
0.094
0.246
0.257
0.115
0.1695
0.014
0.041
0.051500000000000004
0.0
0.1085
0.0
0.029500000000000002
0.0
0.0
0.0
0.0
0.0
0.0155
0.0
0.0
0.0
0.0
0.018000000000000002
0.0
0.0
0.0
0.0
0.0
0.0
0.0
0.0
0.11800000000000001
0.2985
0.1555
0.34850000000000003
0.0265
0.40650000000000003
0.307
0.2495
0.1955
0.301
0.47950000000000004
0.6665
0.6155
0.8305
0.764
1.0190000000000001
0.8975
0.735
0.6995
0.996
0.8555
0.7345
0.8755000000000001
0.9075
0.7715
0.8195
0.8915000000000001
0.7835
1.0055
1.0075
0.9495
0.9375
1.1385
0.887
0.9615
0.9785
0.9225
0.8475
0.918
0.5315
0.225
0.0855
0.396
1.543
1.3805
1.2235
1.289
1.2115
0.9355
0.8375
0.7725
0.9470000000000001
0.747
0.7345
0.399
0.34550000000000003
0.3595
0.319
0.3195
0.2485
0.2795
0.312
0.15
0.223
0.1655
0.2095
0.14
0.111
0.246
0.20500000000000002
0.1565
0.20550000000000002
0.0
0.0555
0.06
0.11900000000000001
0.0725
0.0
0.056
0.0
0.0
0.0
0.0
0.025500000000000002
0.096
0.0125
0.0
0.0185
0.105
0.0
0.135
0.0
0.0
0.0725
0.0
0.0
0.0
0.0
0.0
0.0055
0.028
0.0
0.0
0.0
0.0605
0.0935
0.3825
0.4975
0.163
0.2905
0.03
0.3125
0.371
0.23650000000000002
0.078
0.406
0.10300000000000001
0.1365
0.3215
0.3275
0.5075000000000001
0.5255
0.5305
0.8140000000000001
0.675
0.8575
0.7725
0.85
0.6535
0.7915
0.7835
0.7115
0.7605000000000001
0.6945
0.8065
0.6970000000000001
0.7165
0.5285
0.705
0.6555
0.8025
0.7525000000000001
0.758
0.8290000000000001
0.5925
0.7395
0.7255
0.7065
0.632
0.7055
0.7175
0.7525000000000001
0.6940000000000001
0.8235
0.772
0.7185
0.7045
0.714
0.8475
0.546
0.7025
0.6915
0.914
0.6970000000000001
0.8170000000000001
0.764
0.7235
0.6595
0.7465
0.5635
0.652
0.6285000000000001
0.4415
0.1635
0.03
0.0
0.0
0.20550000000000002
0.6685
1.1035
1.35
1.403
1.1805
0.9935
1.221
0.9735
1.0425
0.8135
0.8875000000000001
0.7845
0.8915000000000001
0.787
0.74
0.623
0.464
0.4465
0.3765
0.4025
0.36
0.23800000000000002
0.28800000000000003
0.1055
0.2885
0.1635
0.1455
0.073
0.0615
0.0
0.1295
0.052000000000000005
0.1495
0.025
0.0
0.0
0.063
0.041
0.0
0.0
0.0
0.064
0.0
0.0
0.0
0.006500000000000001
0.077
0.0245
0.0
0.0
0.0
0.0
0.065
0.0
0.0
0.0
0.0465
0.0
0.0
0.0
0.003
0.001
0.0205
0.0
0.0
0.0
0.0
0.012
0.017
0.41200000000000003
0.4315
0.378
0.278
0.0
0.17550000000000002
0.1805
0.309
0.275
0.151
0.539
0.7805
0.7375
0.7325
0.7115
0.7485
0.5695
0.6305000000000001
0.704
0.799
0.8195
0.8275
0.9075
0.8245
0.9265
0.9665
0.73
0.7945
0.8895000000000001
0.8975
0.909
0.867
0.8655
0.999
0.9765
0.862
0.9035
0.986
0.712
0.7765
0.889
0.5755
0.23550000000000001
0.0
0.23950000000000002
0.55
1.069
1.3205
1.3485
1.3335000000000001
1.1675
1.024
0.8635
0.7635000000000001
0.7725
0.6890000000000001
0.6940000000000001
0.393
0.4495
0.3045
0.3085
0.2615
0.28200000000000003
0.2915
0.2705
0.223
0.20600000000000002
0.1295
0.096
0.28150000000000003
0.084
0.08600000000000001
0.0
0.052000000000000005
0.1665
0.1305
0.0315
0.0
0.025500000000000002
0.0
0.0
0.0
0.0
0.0
0.07200000000000001
0.0
0.045
0.075
0.0
0.001
0.0
0.0
0.0725
0.46900000000000003
0.2905
0.187
0.186
0.2265
0.1105
0.4315
0.3945
0.635
0.3565
0.47000000000000003
0.659
0.459
0.5855
0.6265000000000001
0.751
0.8345
0.797
0.7705
0.7675000000000001
0.7595000000000001
0.7985
0.7095
0.961
0.7395
0.8865000000000001
0.6805
0.873
0.751
0.7735
0.723
0.8130000000000001
0.7175
0.8625
0.772
0.71
0.912
0.6715
0.7615000000000001
0.785
0.7245
0.7135
0.8165
0.794
0.8625
0.738
0.8115
0.8175
0.863
0.769
0.9005
0.9305
0.8565
0.7175
0.747
0.75
0.877
0.8675
0.8200000000000001
0.8165
0.7485
0.6635
0.2435
0.20600000000000002
0.121
0.0
0.1045
0.4605
0.8285
1.3395000000000001
1.3135000000000001
1.4155
1.3455
1.3995
1.1145
1.127
1.0945
1.0945
0.918
0.9015
0.8855000000000001
0.7395
0.6825
0.7275
0.42
0.246
0.3625
0.3975
0.2635
0.355
0.3765
0.167
0.3525
0.2455
0.2015
0.1285
0.166
0.0465
0.137
0.11750000000000001
0.047
0.1165
0.01
0.026000000000000002
0.117
0.0535
0.0
0.0445
0.1295
0.0
0.0
0.0
0.07100000000000001
0.0175
0.015
0.0
0.0
0.0
0.0
0.0
0.043000000000000003
0.04
0.0
0.0
0.0
0.0775
0.3725
0.2915
0.421
0.106
0.132
0.17400000000000002
0.07200000000000001
0.0925
0.0945
0.26
0.315
0.0
0.0725
0.3185
0.7225
0.326
0.525
1.0225
0.741
0.6205
0.6635
0.5760000000000001
0.5445
0.448
0.7020000000000001
0.5365
0.642
0.47900000000000004
0.5405
0.6
0.7075
0.583
0.5795
0.614
0.6425
0.663
0.7030000000000001
0.7555000000000001
0.743
0.678
0.6155
0.6855
0.671
0.768
0.6685
0.7625000000000001
0.6885
0.7895
0.7365
0.7375
0.715
0.8215
0.8255
0.7535000000000001
0.711
0.782
0.8745
0.6900000000000001
0.7765
0.6795
0.8755000000000001
0.6945
0.742
0.7215
0.704
0.403
0.3125
0.114
0.017
0.0
0.044
0.2205
0.8555
1.2315
1.5395
1.4715
1.3485
1.1975
1.219
1.135
1.0935
0.869
0.8975
0.735
0.7105
0.685
0.459
0.522
0.386
0.417
0.0
0.196
0.2445
0.3135
0.10350000000000001
0.2285
0.14100000000000001
0.177
0.16
0.254
0.0885
0.0
0.1805
0.0
0.0735
0.046
0.0345
0.13
0.032
0.052000000000000005
0.0275
0.121
0.0
0.0675
0.0
0.0
0.0
0.0
0.0
0.0
0.0
0.043000000000000003
0.023
0.0535
0.0
0.0
0.0
0.111
0.029
0.0
0.0
0.0
0.0
0.0
0.0
0.0
0.0
0.0675
0.0
0.0
0.0
0.0
0.0
0.2285
0.44
0.337
0.3925
0.35050000000000003
0.05
0.20750000000000002
0.0275
0.1235
0.2575
0.353
0.163
0.281
0.3895
0.435
0.6275000000000001
0.447
0.612
0.5155
0.835
0.682
0.9735
0.851
0.7215
0.7515000000000001
0.799
0.9215
0.7355
0.6805
0.7035
0.8825000000000001
0.6565
0.866
0.6275000000000001
0.7365
0.8935000000000001
0.7195
0.8475
0.9305
0.7435
0.5975
0.8075
0.6905
0.835
0.6155
0.7095
0.6905
0.7595000000000001
0.834
0.8180000000000001
0.744
0.8075
0.7775
0.7305
0.733
0.849
0.664
0.8290000000000001
0.753
0.7755
0.48
0.23650000000000002
0.0
0.4505
1.2175
1.6545
1.3195000000000001
1.3265
1.2610000000000001
1.174
0.9560000000000001
0.851
0.719
0.6175
0.4935
0.317
0.1405
0.1495
0.14250000000000002
0.1445
0.083
0.07050000000000001
0.033
0.07150000000000001
0.0
0.0605
0.0
0.001
0.0245
0.0
0.078
0.0
0.0
0.0
0.076
0.0
0.0
0.037
0.0
0.063
0.0
0.066
0.0
0.0
0.0
0.34750000000000003
0.2655
0.4225
0.2455
0.4405
0.197
0.045
0.3735
0.28450000000000003
0.365
0.3215
0.6155
0.6515
0.7735
0.7445
0.759
0.7195
0.5660000000000001
0.9135
0.7325
0.8475
0.865
0.7275
0.7405
0.7305
0.768
0.7395
0.6655
0.7925
0.7175
0.7995
0.7495
0.9575
0.7975
0.733
0.6980000000000001
0.8255
0.6095
0.6425
0.8135
0.8775000000000001
0.7175
0.7965
0.8925000000000001
0.8815000000000001
0.8845000000000001
0.9195
0.8235
0.8695
0.8975
0.9695
0.7795
0.9345
0.759
0.7715
0.663
0.4295
0.293
0.0
0.1335
0.6890000000000001
1.2545
1.5935000000000001
1.3585
1.2670000000000001
1.1665
1.0230000000000001
1.2195
0.8565
0.7345
0.5720000000000001
0.5885
0.3425
0.312
0.4445
0.1945
0.3085
0.08600000000000001
0.20600000000000002
0.051000000000000004
0.063
0.137
0.0035
0.182
0.0315
0.006
0.0115
0.0
0.0735
0.0
0.0
0.005
0.0
0.1105
0.0
0.0125
0.113
0.113
0.0
0.0685
0.0
0.0
0.1405
0.025500000000000002
0.055
0.0
0.0
0.1805
0.325
0.2975
0.0
0.267
0.2535
0.245
0.4035
0.425
0.621
0.5515
0.7385
0.659
0.745
0.6395000000000001
0.7085
0.6905
0.641
0.869
0.8095
0.8515
0.7295
0.7655000000000001
0.9315
0.858
0.9540000000000001
0.973
0.87
1.049
0.7635000000000001
0.842
0.8325
0.789
0.806
0.7695
0.9145
0.8365
0.8285
0.7655000000000001
0.5565
0.34450000000000003
0.0
0.519
0.6235
1.6585
1.4815
1.341
1.2735
1.2510000000000001
1.0070000000000001
1.1505
0.9635
0.6215
0.7725
0.6205
0.3565
0.371
0.3405
0.4435
0.2195
0.3365
0.1615
0.186
0.3195
0.0475
0.1995
0.2445
0.041
0.1075
0.176
0.016
0.0
0.007
0.211
0.0
0.1485
0.0
0.0
0.0
0.0
0.0
0.0
0.0
0.0
0.0
0.0
0.0
0.0
0.0
0.0
0.017
0.3235
0.433
0.294
0.34800000000000003
0.0915
0.398
0.28450000000000003
0.359
0.3705
0.5825
0.6795
0.9155
0.9745
0.846
0.7545000000000001
0.8865000000000001
0.9075
0.8220000000000001
0.8995
0.805
0.9415
0.8745
0.862
0.7595000000000001
0.9155
0.762
1.0485
1.0075
0.8915000000000001
0.926
1.0345
1.0365
0.743
0.8495
0.9315
0.998
0.8785000000000001
0.961
0.859
1.0665
0.9115
0.723
0.8955000000000001
0.55
0.225
0.0085
0.2555
0.541
1.5110000000000001
1.3815
1.3135000000000001
1.417
1.0925
1.0190000000000001
1.145
0.9925
0.879
0.719
0.398
0.3355
0.424
0.3695
0.2695
0.2095
0.14250000000000002
0.1715
0.2415
0.058
0.10400000000000001
0.0765
0.0545
0.0
0.0
0.131
0.15
0.0075
0.0
0.0
0.0
0.055
0.051000000000000004
0.05
0.075
0.0
0.0
0.0415
0.0
0.0
0.056
0.0
0.0
0.221
0.055
0.338
0.4565
0.2675
0.1555
0.0495
0.0
0.17
0.1125
0.2535
0.23500000000000001
0.0
0.152
0.17400000000000002
0.085
0.1535
0.1785
0.5475
0.527
0.554
0.5345
0.5665
0.7115
0.6035
0.742
0.582
0.6485
0.5895
0.5745
0.7085
0.7755
0.6495
0.7205
0.5515
0.7010000000000001
0.7355
0.7185
0.6475
0.62
0.7105
0.8145
0.9505
0.6890000000000001
0.8260000000000001
0.8495
0.8235
0.672
0.8065
0.7055
0.7475
0.5255
0.385
0.05
0.0
0.2775
0.6075
1.302
1.3905
1.3115
1.3085
1.1075
0.9395
0.9415
1.0170000000000001
0.6055
0.6725
0.5730000000000001
0.221
0.255
0.1555
0.192
0.189
0.0455
0.1945
0.181
0.20800000000000002
0.0
0.0075
0.0
0.08
0.0
0.0
0.0
0.059000000000000004
0.0485
0.0
0.0
0.0
0.013000000000000001
0.0605
0.0
0.041
0.0
0.0
0.0
0.0
0.0
0.018000000000000002
0.023
0.0895
0.0
0.0
0.016
0.1655
0.14300000000000002
0.339
0.2265
0.133
0.3275
0.1505
0.404
0.4525
0.3855
0.2145
0.554
0.771
0.727
0.7555000000000001
0.902
0.7385
0.741
0.7495
0.7195
0.8625
0.91
0.673
0.9075
0.9705
0.9390000000000001
0.9955
0.7715
0.7985
0.7615000000000001
0.8435
0.8235
0.8555
0.878
0.9895
0.9055
1.0595
0.9645
0.9425
0.9785
0.449
0.2745
1.3065
1.3535
1.3805
1.6035
1.173
1.2975
1.0815000000000001
0.927
0.8845000000000001
0.6095
0.4625
0.4425
0.41450000000000004
0.36
0.169
0.281
0.3435
0.2715
0.1075
0.113
0.0
0.035
0.132
0.2665
0.0
0.007
0.1975
0.089
0.0
0.0
0.0
0.0
0.0
0.0
0.0385
0.0
0.0
0.0
0.049
0.0
0.07200000000000001
0.1255
0.0
0.0
0.4035
0.3615
0.2495
0.15
0.1
0.32
0.3175
0.17550000000000002
0.234
0.4185
0.4385
0.5235
0.6585
0.6595
0.8315
0.812
0.89
0.983
0.7925
0.808
0.7515000000000001
0.8145
0.8475
0.6765
0.9015
0.7275
0.7665000000000001
0.8825000000000001
0.786
0.6885
0.9985
0.771
0.7765
0.8775000000000001
0.9025
0.9775
0.9245
0.771
0.9135
1.0305
0.8805000000000001
1.0195
0.847
0.8875000000000001
0.841
0.5885
0.2255
0.0195
0.1285
0.562
1.4375
1.5625
1.3725
1.2590000000000001
0.9855
1.1185
0.7185
0.7105
0.5295
0.7855
0.7010000000000001
0.17450000000000002
0.34600000000000003
0.296
0.23750000000000002
0.47950000000000004
0.169
0.181
0.254
0.3355
0.256
0.0835
0.101
0.137
0.1065
0.063
0.108
0.0075
0.0
0.0
0.0
0.0
0.0
0.003
0.054
0.0
0.076
0.0
0.0495
0.0785
0.0
0.0685
0.101
0.0
0.0
0.0
0.0
0.0
0.0
0.0
0.3135
0.28200000000000003
0.312
0.17350000000000002
0.1675
0.1985
0.35100000000000003
0.6255000000000001
0.71
0.7855
0.6355000000000001
0.665
0.6285000000000001
0.7315
0.677
0.8665
0.8315
0.7975
0.6535
0.7355
0.7805
0.602
0.7555000000000001
0.7365
0.71
0.6965
0.7105
0.7545000000000001
0.796
0.7995
0.8275
0.8335
0.733
0.8575
0.7195
0.8805000000000001
0.8875000000000001
0.7995
0.885
0.798
0.8395
0.793
0.802
0.8975
0.8765000000000001
0.6395000000000001
0.7965
0.6305000000000001
0.6795
0.3245
0.081
0.0785
0.4255
0.8045
1.4335
1.4735
1.401
1.2605
1.218
1.1135
0.8615
0.8415
0.8055
0.617
0.755
0.3825
0.3335
0.1855
0.314
0.1955
0.056
0.41150000000000003
0.1855
0.2125
0.051000000000000004
0.168
0.039
0.28550000000000003
0.0
0.117
0.025500000000000002
0.0
0.016
0.0
0.0735
0.0415
0.0
0.0
0.017
0.0
0.0
0.0625
0.015
0.0
0.0
0.0
0.0
0.0
0.0
0.0
0.0
0.3035
0.3075
0.20500000000000002
0.279
0.062
0.3425
0.1325
0.3635
0.3375
0.403
0.538
0.6025
0.6335000000000001
0.751
0.6015
0.682
0.737
0.7525000000000001
0.746
0.8055
0.8315
0.6225
0.7015
0.7615000000000001
0.593
0.634
0.8295
0.7435
0.7795
0.773
0.8505
0.723
0.801
0.666
0.8195
0.759
0.584
0.633
0.8595
0.7935
0.6215
0.8755000000000001
0.7285
0.862
0.9455
0.7815
0.8445
0.837
0.7635000000000001
0.7365
0.8015
0.6395000000000001
0.733
0.788
0.7245
0.655
0.581
0.367
0.225
0.108
0.0
0.148
0.3375
0.9385
1.338
1.5230000000000001
1.3085
1.3385
1.2435
1.3795
1.1005
1.238
1.096
0.7905
0.981
0.8355
0.6675
0.6635
0.4955
0.2925
0.3115
0.36
0.34
0.297
0.3965
0.2925
0.337
0.17
0.187
0.112
0.163
0.0535
0.10400000000000001
0.28800000000000003
0.0615
0.02
0.0
0.056
0.0
0.138
0.0305
0.0
0.0
0.0
0.0
0.0625
0.0
0.062
0.0
0.0395
0.0505
0.35150000000000003
0.3995
0.1965
0.2885
0.0
0.008
0.022
0.0585
0.0745
0.1635
0.307
0.166
0.2495
0.292
0.4405
0.40750000000000003
0.311
0.4395
0.6975
0.6425
0.6235
0.541
0.4645
0.6645
0.5135
0.61
0.6005
0.618
0.6475
0.7915
0.5805
0.611
0.622
0.5765
0.6165
0.559
0.7455
0.562
0.7255
0.5245
0.5305
0.6525
0.6515
0.7010000000000001
0.5955
0.6235
0.5965
0.6415
0.5630000000000001
0.6585
0.6475
0.6485
0.672
0.687
0.8335
0.5065000000000001
0.7425
0.6950000000000001
0.8095
0.841
0.7145
0.7465
0.7975
0.775
0.7585000000000001
0.7735
0.6005
0.328
0.0975
0.004
0.002
0.23700000000000002
0.435
1.0025
1.414
1.3505
1.2525
1.247
1.165
1.2425
1.1945000000000001
0.9570000000000001
0.896
0.8695
0.7595000000000001
0.7325
0.6535
0.5085000000000001
0.4555
0.429
0.0635
0.0795
0.113
0.1365
0.08750000000000001
0.2
0.14100000000000001
0.0205
0.1165
0.0685
0.067
0.0
0.0
0.1075
0.1105
0.004
0.0765
0.035500000000000004
0.0205
0.0
0.0285
0.0
0.0
0.0
0.013000000000000001
0.1325
0.0
0.006
0.0
0.0
0.0
0.081
0.0
0.0
0.0265
0.0
0.0
0.0
0.0
0.0225
0.1075
0.0
0.047
0.062
0.0165
0.0
0.0
0.0
0.067
0.0
0.0
0.0
0.0
0.3125
0.4915
0.28600000000000003
0.3835
0.1395
0.1685
0.2465
0.194
0.3155
0.3585
0.2945
0.4035
0.367
0.28500000000000003
0.55
0.3335
0.4465
0.5515
0.6935
0.7645000000000001
0.8015
0.8725
0.8005
0.768
0.7935
0.7175
0.6355000000000001
0.706
0.5835
0.7195
0.6675
0.7245
0.6255000000000001
0.8575
0.5585
0.7835
0.8845000000000001
0.757
0.753
0.8305
0.8755000000000001
0.7535000000000001
0.558
0.764
0.7575000000000001
0.602
0.679
0.7145
0.7035
0.6755
0.889
0.739
0.8265
0.8165
0.7475
0.8130000000000001
0.7665000000000001
0.7905
0.6805
0.791
0.7965
0.8385
0.661
0.7055
0.5875
0.5505
0.3155
0.129
0.0
0.0
0.0
0.2415
0.5505
1.1015
1.3885
1.4445000000000001
1.0805
1.2315
1.052
0.9355
1.2205
0.9425
0.9055
0.706
0.6985
0.5995
0.6085
0.6205
0.4195
0.2805
0.3395
0.34700000000000003
0.332
0.33
0.28750000000000003
0.1925
0.23600000000000002
0.3735
0.1705
0.0645
0.0365
0.2475
0.219
0.1245
0.0505
0.0045000000000000005
0.0
0.035
0.0
0.0
0.0125
0.035
0.0945
0.005
0.067
0.08700000000000001
0.0
0.0
0.0
0.0
0.0445
0.0
0.0
0.0
0.0
0.0
0.07200000000000001
0.0
0.0
0.2585
0.098
0.2495
0.147
0.3295
0.243
0.2725
0.29
0.1235
0.624
0.5705
0.7795
0.6665
0.6725
0.656
0.7165
0.641
0.6855
0.72
0.626
0.781
0.6295000000000001
0.8945000000000001
0.5715
0.8415
0.678
0.768
0.836
0.8225
0.8300000000000001
0.9975
0.809
0.9375
0.6805
0.8965
0.85
0.9575
0.8575
0.741
0.6835
0.7435
0.6655
0.365
0.1255
0.007
0.05
0.356
0.4805
1.1565
1.4825
1.4075
1.3795
1.2905
1.2275
1.1675
0.8105
1.0010000000000001
0.9635
0.873
0.8675
0.801
0.862
0.68
0.6465
0.3815
0.304
0.307
0.388
0.295
0.4495
0.227
0.20800000000000002
0.2445
0.2165
0.131
0.254
0.1595
0.23950000000000002
0.0995
0.0815
0.0
0.029
0.031
0.0895
0.0075
0.0345
0.092
0.0
0.0
0.077
0.0
0.0
0.0
0.0
0.0
0.0
0.0
0.0985
0.0735
0.0
0.0
0.07
0.0
0.0885
0.0
0.0
0.042
0.0315
0.0
0.135
0.131
0.0
0.0
0.0
0.0
0.0
0.0
0.0
0.03
0.365
0.34600000000000003
0.3315
0.20500000000000002
0.20400000000000001
0.2765
0.058
0.059500000000000004
0.11850000000000001
0.35050000000000003
0.4045
0.2415
0.352
0.406
0.3285
0.5825
0.4875
0.633
0.9295
0.655
0.8005
0.7115
0.7895
0.6545
0.683
0.5925
0.7975
0.655
0.6035
0.7265
0.745
0.7015
0.782
0.5955
0.7545000000000001
0.5630000000000001
0.7715
0.8085
0.7435
0.7365
0.6095
0.803
0.6625
0.663
0.7775
0.6015
0.6990000000000001
0.7215
0.7825
0.7995
0.7775
0.6495
0.721
0.675
0.659
0.7105
0.7975
0.8515
0.679
0.706
0.62
0.8335
0.8465
0.7715
0.6345000000000001
0.3015
0.123
0.0
0.1105
1.0025
1.5110000000000001
1.215
1.1805
1.1875
0.8125
0.8715
0.768
0.8955000000000001
0.5475
0.3035
0.321
0.419
0.2585
0.28
0.2485
0.1515
0.23500000000000001
0.129
0.1075
0.20750000000000002
0.0
0.0
0.108
0.0
0.0
0.0
0.056
0.14200000000000002
0.0015
0.0
0.0
0.0
0.0
0.0
0.043500000000000004
0.0
0.0
0.0
0.0
0.0
0.0
0.2235
0.518
0.503
0.038
0.0645
0.11950000000000001
0.3715
0.003
0.34750000000000003
0.295
0.3745
0.366
0.462
0.7805
0.6705
0.6565
0.7145
0.778
0.7315
0.7155
0.743
0.6595
0.6585
0.7815
0.6930000000000001
0.8535
0.622
0.5905
0.7975
0.837
0.79
0.6935
0.6195
0.725
0.7575000000000001
0.714
0.8065
0.7925
0.8115
0.6965
0.7525000000000001
0.8785000000000001
0.8675
0.737
0.906
0.793
0.7915
0.7395
0.8205
0.8955000000000001
0.7155
0.733
0.793
0.655
0.5175
0.226
0.0385
0.0
0.0
0.177
0.5615
1.204
1.367
1.4575
1.075
1.1065
0.9995
1.0405
0.9955
0.6965
0.7945
0.4835
0.41400000000000003
0.2745
0.196
0.20400000000000001
0.23950000000000002
0.17450000000000002
0.129
0.2785
0.14
0.1605
0.075
0.0
0.1515
0.098
0.059500000000000004
0.0
0.0095
0.022
0.0
0.0
0.0
0.0495
0.0
0.0765
0.0405
0.137
0.02
0.10300000000000001
0.061
0.0
0.0
0.0
0.0
0.0
0.0
0.0
0.617
0.3245
0.3255
0.0
0.1865
0.015
0.335
0.28350000000000003
0.1395
0.4875
0.3265
0.7425
0.738
0.5535
0.7255
0.8245
0.78
0.7945
0.6875
0.7435
0.7975
0.651
0.7665000000000001
0.777
0.864
0.846
0.9420000000000001
0.7355
0.837
0.901
0.9575
0.7515000000000001
1.0050000000000001
0.839
0.8495
0.481
0.263
0.0525
0.4505
1.1335
1.4125
1.5305
1.381
1.1945000000000001
1.187
0.9565
0.972
0.902
0.714
0.5915
0.626
0.3185
0.3895
0.3155
0.2705
0.34450000000000003
0.3
0.1165
0.202
0.0345
0.264
0.0
0.0105
0.033
0.0335
0.077
0.0
0.097
0.0
0.0
0.0
0.008
0.08650000000000001
0.0
0.1015
0.0
0.0
0.0365
0.0
0.0
0.0365
0.048
0.0
0.0
0.0
0.005
0.226
0.384
0.3125
0.0635
0.2965
0.2685
0.449
0.23750000000000002
0.3775
0.362
0.3555
0.503
0.728
0.723
1.0005
0.719
0.725
0.7045
0.7205
0.716
0.647
0.9075
0.81
0.685
0.894
0.803
0.9195
0.7195
0.9395
0.8535
0.7905
0.7875
0.7475
0.9515
0.9275
0.9365
0.9725
0.8155
0.8055
0.8155
0.9485
0.859
0.931
0.8245
0.7765
0.3895
0.1225
0.0095
0.149
0.656
1.3505
1.6455
1.2895
1.1515
1.286
1.197
0.933
0.7795
0.6980000000000001
0.764
0.47150000000000003
0.46950000000000003
0.3375
0.41550000000000004
0.421
0.2295
0.3275
0.281
0.2655
0.2765
0.2995
0.225
0.2625
0.179
0.11800000000000001
0.0965
0.066
0.212
0.0125
0.062
0.246
0.0
0.0
0.061
0.0
0.091
0.0
0.14250000000000002
0.0
0.0
0.0
0.3925
0.1895
0.0855
0.2665
0.0365
0.2265
0.431
0.1625
0.3965
0.163
0.4595
0.3555
0.4215
0.7865
0.704
0.81
0.662
0.585
0.7305
0.739
0.6395000000000001
0.7155
0.751
0.5465
0.7315
0.6745
0.7445
0.7265
0.737
0.7415
0.63
0.6635
0.515
0.6835
0.634
0.7235
0.5630000000000001
0.7775
0.6705
0.6950000000000001
0.76
0.8795000000000001
0.6475
0.787
0.8735
0.9635
0.679
0.7695
0.8125
0.8805000000000001
0.7355
0.7885
0.7725
0.911
0.7125
0.777
0.7535000000000001
0.6675
0.7405
0.6235
0.3555
0.002
0.0
0.0
0.219
0.5045000000000001
0.8995
1.1420000000000001
1.2675
1.1835
1.078
1.0475
1.0065
1.133
0.7935
0.848
0.7795
0.7435
0.388
0.5325
0.5605
0.5005000000000001
0.461
0.3595
0.1585
0.0525
0.23750000000000002
0.244
0.2475
0.13
0.08600000000000001
0.0
0.014
0.0185
0.1535
0.0445
0.002
0.039
0.048
0.0
0.0
0.085
0.0
0.0
0.008
0.0
0.0
0.0
0.0
0.0455
0.0
0.0
0.0
0.0
0.0
0.0
0.0
0.0
0.1095
0.0
0.0
0.0
0.0
0.0425
0.0825
0.0975
0.133
0.015
0.0
0.0125
0.0
0.0
0.0
0.0
0.0
0.0
0.0
0.34750000000000003
0.436
0.357
0.302
0.0985
0.021500000000000002
0.251
0.0805
0.1315
0.334
0.1355
0.3695
0.1965
0.3265
0.34600000000000003
0.4525
0.3945
0.6655
0.6705
0.7695
0.8885000000000001
0.739
0.726
0.7445
0.7625000000000001
0.7375
0.8445
0.7895
0.6920000000000001
0.799
0.6425
0.5875
0.7525000000000001
0.734
0.6755
0.673
0.6125
0.8485
0.7545000000000001
0.8045
0.7375
0.6875
0.598
0.8655
0.6315000000000001
0.806
0.784
0.742
0.7175
0.733
0.759
0.7675000000000001
0.844
0.7375
0.7175
0.6755
0.7755
0.8265
0.6575
0.665
0.7005
0.9155
0.5445
0.6955
0.3765
0.203
0.0975
0.0
0.5575
0.977
1.3875
1.303
1.1285
1.0355
1.029
0.9570000000000001
0.723
0.621
0.4825
0.4265
0.1995
0.1675
0.2595
0.2705
0.056
0.183
0.046
0.135
0.0
0.12
0.0
0.021500000000000002
0.0
0.0
0.061
0.0495
0.03
0.109
0.073
0.0505
0.0
0.0015
0.0
0.0
0.046
0.059500000000000004
0.0
0.0
0.0
0.0
0.0
0.146
0.4515
0.10350000000000001
0.186
0.11950000000000001
0.2335
0.05
0.245
0.245
0.2285
0.331
0.401
0.512
0.5670000000000001
0.7955
0.7585000000000001
0.6985
0.633
0.6555
0.7375
0.7725
0.6365000000000001
0.5435
0.6895
0.5615
0.6605
0.765
0.771
0.6765
0.805
0.7335
0.7465
0.7825
0.7175
0.758
0.9065
0.7855
0.9335
0.8595
0.6745
0.8075
0.774
0.8585
0.7015
0.613
0.2435
0.0
0.0
0.6625
0.9205
1.5350000000000001
1.3415000000000001
1.3035
1.1825
1.0355
0.9765
0.8245
0.7865
0.8140000000000001
0.533
0.47550000000000003
0.3715
0.334
0.3385
0.197
0.3765
0.41250000000000003
0.3165
0.139
0.1165
0.361
0.025
0.07050000000000001
0.044
0.185
0.044
0.0635
0.036000000000000004
0.021
0.0
0.1075
0.0235
0.151
0.0445
0.064
0.0
0.0
0.0
0.0
0.0
0.04
0.02
0.2085
0.0
0.0
0.021500000000000002
0.0
0.0
0.0
0.016
0.0
0.0
0.0
0.0
0.0
0.07100000000000001
0.0
0.0
0.0
0.0
0.328
0.3815
0.3015
0.0905
0.124
0.2105
0.11850000000000001
0.3345
0.1445
0.011
0.34900000000000003
0.5795
0.706
0.7555000000000001
0.5945
0.675
0.523
0.738
0.638
0.607
0.75
0.7075
0.799
0.65
0.795
0.711
0.6725
0.731
0.6950000000000001
0.8255
0.9725
0.8245
0.775
0.908
0.7455
0.8535
0.8155
0.7375
0.851
0.966
0.7995
0.4515
0.0755
0.0
0.229
0.538
0.9885
1.2835
1.339
1.4115
1.2955
1.2955
1.0945
1.1705
1.1755
0.9540000000000001
0.799
0.889
0.681
0.637
0.6195
0.41250000000000003
0.5595
0.458
0.1975
0.28250000000000003
0.093
0.2525
0.293
0.365
0.2905
0.369
0.132
0.1055
0.151
0.16
0.07
0.128
0.2085
0.191
0.059500000000000004
0.1245
0.0085
0.0
0.0
0.10350000000000001
0.0
0.032
0.0325
0.0075
0.0
0.0
0.0695
0.025
0.0
0.13
0.0
0.0
0.0
0.0
0.0
0.164
0.3335
0.28700000000000003
0.2325
0.17300000000000001
0.1705
0.165
0.314
0.168
0.6085
0.4945
0.5825
0.51
0.627
0.6265000000000001
0.781
0.7275
0.8145
0.586
0.647
0.713
0.7275
0.806
0.762
0.7395
0.7535000000000001
0.8425
0.835
0.8875000000000001
0.5355
0.8635
0.7755
0.7965
0.882
0.8695
0.7835
0.763
0.7355
0.9445
0.722
0.7735
0.67
0.7525000000000001
0.721
0.782
0.506
0.2325
0.078
0.28800000000000003
0.4975
1.1335
1.539
1.5125
1.5305
1.347
1.1575
1.0085
0.8505
0.893
0.7285
0.8035
0.4285
0.396
0.359
0.3745
0.3015
0.195
0.2085
0.2085
0.1325
0.1095
0.0235
0.096
0.167
0.0925
0.1615
0.066
0.215
0.1985
0.1355
0.046
0.07100000000000001
0.028
0.0965
0.0945
0.027
0.0
0.0
0.0
0.056
0.0
0.0
0.0
0.0
0.0
0.291
0.0
0.254
0.309
0.2155
0.5285
0.35100000000000003
0.7835
0.6525
0.6605
0.559
0.757
0.6905
0.6715
0.7365
0.6940000000000001
0.6295000000000001
0.5925
0.7765
0.6605
0.7205
0.8025
0.6855
0.7855
0.8015
0.8200000000000001
0.6555
0.9695
0.795
0.7965
0.9305
0.991
0.8635
0.7015
0.778
0.7475
0.7955
0.6605
0.3235
0.0415
0.0
0.2215
0.8665
1.4315
1.4535
1.163
1.1155
1.3275000000000001
1.0585
0.932
0.5720000000000001
0.881
0.5775
0.484
0.1965
0.25
0.47100000000000003
0.1135
0.20500000000000002
0.1895
0.242
0.193
0.0975
0.055
0.0845
0.18
0.0175
0.0
0.17300000000000001
0.0055
0.017
0.0285
0.0375
0.0
0.0155
0.11950000000000001
0.0
0.0
0.0
0.0
0.1
0.1055
0.0
0.0
0.1125
0.0
0.0
0.0
0.077
0.3095
0.364
0.183
0.294
0.105
0.0655
0.227
0.166
0.2495
0.1925
0.4995
0.539
0.708
1.0895
0.6315000000000001
0.7915
0.7765
0.7475
0.6005
0.872
0.6315000000000001
0.9065
0.751
0.7795
0.679
0.6255000000000001
0.7725
0.7885
0.7455
0.8055
0.8095
0.75
0.7645000000000001
0.733
0.8115
0.967
0.735
0.8285
0.7855
0.861
0.7675000000000001
0.714
0.6945
0.7705
0.6655
0.3845
0.2635
0.0
0.0305
0.22
0.5035000000000001
1.027
1.313
1.2315
1.2555
1.0395
1.0905
0.7115
0.446
0.41450000000000004
0.401
0.2985
0.20600000000000002
0.1445
0.2725
0.1335
0.07150000000000001
0.062
0.165
0.11950000000000001
0.017
0.17450000000000002
0.1685
0.1095
0.0
0.03
0.0
0.0
0.0
0.0345
0.0695
0.0475
0.0
0.0445
0.0
0.0
0.0055
0.1455
0.0
0.0
0.0
0.065
0.165
0.484
0.311
0.0
0.13
0.23550000000000001
0.201
0.17200000000000001
0.375
0.301
0.455
0.5885
0.6715
